ppg,eda,label
0.024835707650561634,0.17881201589886486,0
0.0021360385965941827,0.17738930658320778,0
0.050480875669777436,0.11033786537330022,0
0.10329102007188823,0.1836755264221296,0
0.024468763238396904,0.2368815021006892,0
0.0334982593501142,0.13658845405816264,0
0.13318413983155133,0.2527842045669325,0
0.10160129248298502,0.22480882507102026,0
0.04874751008921906,0.16376842992065196,0
0.10832447587029839,0.19346362615471197,0
0.06698236259007447,0.28051621040605645,0
0.07580302481857681,0.23733752270169858,0
0.12010135022577928,0.20115932677371318,0
0.02122837973397876,0.18889599018315703,0
0.03950906470359426,0.20467062155618973,0
0.10647453719551726,0.17531200213889203,0
0.09275069836565963,0.09572271675245697,0
0.16787534252874373,0.30312909956754475,0
0.11549787924688679,0.20884646600317874,0
0.09898340337726554,0.22104759130173599,0
0.25154195162429527,0.1983048525541642,0
0.17559107199359764,0.1645044120141807,0
0.1988341592145748,0.19202404000537202,0
0.13275373844203736,0.12141053794549549,0
0.18525900591158126,0.3152946129602767,0
0.22646293097956346,0.1397747001388922,0
0.1717555273041514,0.14996199787005352,0
0.2564263488846324,0.17960736384549295,0
0.21589169602643285,0.2660841223098323,0
0.2395651823002546,0.20246579803274664,0
0.23223296383420483,0.13999357027049128,0
0.363040955542583,0.26457729011228187,0
0.27779941956940585,0.23847041541608943,0
0.2335726208614981,0.2289021439400385,0
0.3355041352379357,0.23782712014015836,0
0.2411864639085705,0.32181851511313936,0
0.3204548312464176,0.3114151768382229,0
0.21974062820960844,0.16788467693865303,0
0.25895503823065047,0.28347470573177586,0
0.34277359409341857,0.22149887758156378,0
0.37734431710142324,0.2273552709029067,0
0.35640241819358964,0.11784695051625327,0
0.34938547994749497,0.1940012158314104,0
0.34736580479005724,0.1619393365863924,0
0.2956655411722923,0.2440434688502866,0
0.34068600581396885,0.25625456512816186,0
0.36064716557973586,0.09903623455960653,0
0.4434488231051828,0.20171882091260904,0
0.4145983809878848,0.25897365135493566,0
0.3159998079939642,0.19360664000195127,0
0.42699842607624344,0.23945378237014225,0
0.39808907699034174,0.2206188855037787,0
0.38995111618712364,0.2202036357224563,0
0.46073864944546694,0.1896148872238106,0
0.4879645772928418,0.14241160792284047,0
0.48913909666572286,0.14722415276077505,0
0.4066740260652073,0.23882829785719278,0
0.43913203842454657,0.20439359691277154,0
0.4770101719682389,0.19655508390886664,0
0.5149738563655231,0.18234620602551072,0
0.44788143622639626,0.18834127786999125,0
0.4680934120850024,0.2560063218708363,0
0.42748723031695673,0.18695854005542845,0
0.42831143652445547,0.13672752048615183,0
0.533954808468478,0.2410233569306394,0
0.5662350448629528,0.19365694696279537,0
0.4998036809915937,0.2055305854350705,0
0.5584474600296631,0.2843997194808077,0
0.5311036218081178,0.20305278829570728,0
0.48540013483245875,0.2186000118215694,0
0.5402424472094688,0.14525466560311734,0
0.6034722545588677,0.1932773795528861,0
0.529057098099123,0.23479716643326465,0
0.6132377980183289,0.12661218948317293,0
0.40805387085699335,0.21448314283342101,0
0.5840491397674157,0.20954045381227634,0
0.5510957439879571,0.20662528496180846,0
0.5354580246041739,0.25647886911774914,0
0.5585362243064887,0.22140286192966352,0
0.45798351966220263,0.2786445431074602,0
0.5496653608984868,0.1551214844123366,0
0.5816640360174321,0.2116572005553563,0
0.640734305364143,0.20914432351633674,0
0.5438283418888039,0.15151827151148584,0
0.5320898161128416,0.25285575830620766,0
0.5500690505854121,0.3213346854966817,0
0.6234385771081393,0.20431072848224976,0
0.596486185778159,0.23047209862253012,0
0.5558088283485053,0.20950698000200862,0
0.6100759561760373,0.16966183471828394,0
0.5912492644182274,0.11436306632594241,0
0.6366770443022963,0.17017241806367545,0
0.554857732593327,0.13592318517325763,0
0.5751586668885349,0.29078622012620053,0
0.5733831881751014,0.19988564352948318,0
0.5211247755940532,0.18840517377568708,0
0.6102832711382155,0.2502188434698364,0
0.609571294607396,0.14973360909005218,0
0.5976797801016265,0.16753797433501944,0
0.5864644234269094,0.20934480170007858,0
0.5280588372873807,0.2574396498112221,0
0.5782924798824152,0.2311454645008879,0
0.5825500560184017,0.2185374813706431,0
0.5597965362717109,0.21008712300905028,0
0.5919342630049309,0.2262530410259887,0
0.620152751199476,0.21638390550851316,0
0.694074685101421,0.1548626585156041,0
0.6081730263191661,0.20872524533850895,0
0.611864037884627,0.15279686331336423,0
0.5946703463651988,0.21059543540669354,0
0.501724081424035,0.18256892318964074,0
0.5954709907445814,0.3336304134055964,0
0.5988064766248173,0.20472662508126818,0
0.7178198205186846,0.1365693779581748,0
0.5837671412825416,0.2001323577398085,0
0.6070550466030519,0.23286931755794965,0
0.5886999164871815,0.29062958958608187,0
0.5303251149163334,0.17754878428392026,0
0.6440897370582059,0.12796001758207465,0
0.6226013070509337,0.2979832788572062,0
0.6224792336141476,0.13817150499307507,0
0.5352486386141341,0.18545368021508385,0
0.648515998889713,0.19444044001730887,0
0.505810431791303,0.20389980363025367,0
0.6026415334396678,0.24189971115137632,0
0.6800867385233306,0.17331978618574062,0
0.5181726262248155,0.19387504969412248,0
0.5363908996416421,0.20690800665739154,0
0.5665662374125151,0.21516143418320086,0
0.5331600191111275,0.21263290704505808,0
0.4774237518323746,0.22960184907319142,0
0.554881950784936,0.25005354779654976,0
0.49471004900579674,0.22755329009941178,0
0.5677516682949019,0.23066087249472478,0
0.4942238803301088,0.12893044998434045,0
0.6136919727177511,0.21061300528234883,0
0.49291077331449673,0.23213700972654575,0
0.51172751026491,0.2446687040573883,0
0.5641435229409606,0.17366411761957656,0
0.45744244258970246,0.17538970458923447,0
0.5257585913989333,0.17969664657188733,0
0.5750256549919279,0.23528238733303486,0
0.4244613375624677,0.2602157570870786,0
0.50911933305984,0.18820871097868858,0
0.5078202050689856,0.25403984402702157,0
0.5287430699683814,0.21487573080629935,0
0.4225188646835124,0.20254746349234828,0
0.41294785861000766,0.19825255286197213,0
0.4995630991998313,0.2462123445853789,0
0.48270288106830833,0.22522067919702504,0
0.4746594879604668,0.32279307174245386,0
0.47363332642996503,0.1664505802126063,0
0.4163819477047699,0.23502690946637178,0
0.4559656822414527,0.18272178587669782,0
0.4528753521801989,0.16577749902024175,0
0.39627320103346586,0.20875850352032582,0
0.518950270631897,0.2162294963448267,0
0.4429271337679326,0.35533056212988,0
0.3531488868323861,0.20027460559511576,0
0.43892643092625094,0.1530329719074422,0
0.3506569754836928,0.2232524562587961,0
0.431946743262622,0.1059299305091589,0
0.44363443823551135,0.20512410525866448,0
0.3376949485716235,0.2105832205060363,0
0.4198361219746757,0.24957198754093932,0
0.38516006512502937,0.25858309286747155,0
0.39839480794260396,0.18478351145309382,0
0.44482095265893273,0.20249130366938353,0
0.33032178673709534,0.17177597487274712,0
0.2974363398778923,0.15373890066529644,0
0.2831031475689061,0.22569677937711335,0
0.2791695573426036,0.14658277498065214,0
0.3084134033891564,0.18959071938428942,0
0.3215634692973528,0.16062337842032118,0
0.31050852250607314,0.23792624773219653,0
0.330133768877175,0.30057360538340844,0
0.2814596337765302,0.14548271328231793,0
0.3454572965815024,0.11797120028000652,0
0.2514567518301585,0.2044377921597821,0
0.3925468403769621,0.21152703822757385,0
0.27961218003496563,0.22173512576995133,0
0.19720487500115413,0.18854614667276964,0
0.17819745805296877,0.2008902194956158,0
0.2474923166166481,0.229357716966318,0
0.20377135704891558,0.2630637530739303,0
0.24217142539956663,0.11334978192817469,0
0.22161321770220263,0.1927152604949162,0
0.18574479618235842,0.22191268414594295,0
0.13843837922450533,0.16538345122075346,0
0.09638640338573781,0.29790075004205574,0
0.14111456025144614,0.17963178644465436,0
0.1975346110190343,0.20939765810812758,0
0.15665852709911404,0.23932340930300672,0
0.0748728676230186,0.18201807702319794,0
0.13699361808090538,0.11931367607547227,0
0.13874601215345053,0.19026961412226698,0
0.06640566311085443,0.26323438026684615,0
0.1093780227565208,0.19497760813363768,0
0.09567230283677736,0.16956066140234613,0
0.026662349789915794,0.25822599895283166,0
0.0927301649726661,0.1954636556789434,0
0.0938929305864662,0.18655437179998566,0
0.11100419318365912,0.21959522896806247,0
0.10052672764037154,0.25071994696823685,0
-0.030072731333782896,0.33132812507632525,0
-0.017115231664241164,0.2536642658749696,0
0.04648629344005989,0.2703544708139161,0
0.0373776206335449,0.1871241745475066,0
0.028391841524241346,0.16118909120082606,0
0.1862265654327285,0.2156590759826565,0
0.0130865082896925,0.21796101626708064,0
0.03227577304532599,0.15873689543827144,0
0.014158661380745965,0.20395781801370116,0
-0.010003151975960335,0.2327484365972588,0
-0.06735777997909256,0.23086223826460678,0
-0.0226557231311513,0.23811697318531685,0
-0.1082415249086867,0.22751082902537587,0
-0.09042144171255456,0.1876721715574014,0
-0.11181106028069647,0.18738758519086252,0
-0.09239163297214366,0.15319505862601135,0
0.010327080052686219,0.3024413924873604,0
-0.20766563827914047,0.21393517076147076,0
-0.08885989772471559,0.202080011743164,0
-0.2126512097333706,0.16694307246268414,0
-0.16442448721557848,0.3602255836540965,0
-0.09516080596850623,0.15983629892896326,0
-0.15514074349578816,0.19212031626220485,0
-0.2209523690699678,0.234414566359212,0
-0.21150269698960955,0.24369338483452335,0
-0.15039002824938918,0.26163935131049415,0
-0.22947871054823504,0.3041831859405736,0
-0.19068401766743373,0.23917065532754653,0
-0.2077290840599076,0.16112124455857801,0
-0.25104064930250547,0.2011355403032228,0
-0.11966668738327835,0.2294344271874066,0
-0.20351959312780038,0.31751412263940404,0
-0.3447708185839802,0.14427255864529845,0
-0.24243372345167274,0.27435166983017517,0
-0.2930312422190565,0.2232785750486351,0
-0.2254465998305195,0.25623439533518877,0
-0.3157596702801443,0.20930314474431863,0
-0.28987300668985877,0.1723412610721994,0
-0.26682473595608736,0.2520665435509828,0
-0.256657813780101,0.24730446793859776,0
-0.3677636350984176,0.3132457768727032,0
-0.3322071103684981,0.21403770881918588,0
-0.3468907813648498,0.18477185142452565,0
-0.36339793521673336,0.1368836148417265,0
-0.24997148377960093,0.2558516400022894,0
-0.32543088786381197,0.23613746271991884,0
-0.41608131265118264,0.16671386895692208,0
-0.3144208493887235,0.18813432893768928,0
-0.2614010036314618,0.19178508400734898,0
-0.32299681542351144,0.14103381500820056,0
-0.4576146222587622,0.17435892877946527,0
-0.4127970553539806,0.15861154277180473,0
-0.33209062568866277,0.19473912202012608,0
-0.43758053311068507,0.17848820970044524,0
-0.38667547236843997,0.13413285057598645,0
-0.3767111151473535,0.3166726201501984,0
-0.46827120952877943,0.2782301571755864,0
-0.4312868414613562,0.17671216155052602,0
-0.5966623952706501,0.2293442144616063,0
-0.4920080013308947,0.23665641112239102,0
-0.4595063461961174,0.2753974613724006,0
-0.5152547602395464,0.1749729293031233,0
-0.37712967952454113,0.27056853183764906,0
-0.536037599611348,0.18862793943058143,0
-0.49220736853964286,0.14929009643489802,0
-0.46923576545678986,0.25235005661145404,0
-0.40916855006673325,0.280741161854251,0
-0.5583752704388162,0.34565870132706433,0
-0.43366323477389196,0.1563370013984199,0
-0.49643714813533846,0.2513292609093705,0
-0.5510385654580519,0.1959532264680549,0
-0.4837581031544802,0.2556712361863336,0
-0.5016951335973074,0.14303883510096999,0
-0.5463274128215739,0.15348483588000478,0
-0.5173774623909526,0.1778895955090093,0
-0.5445657559778422,0.2206915509531382,0
-0.5239372218662596,0.18474929734521667,0
-0.5006990907622367,0.24981608987020593,0
-0.4585758876780561,0.2682681155898311,0
-0.6037162499569295,0.24696227374160368,0
-0.43899929707609225,0.29798279066477973,0
-0.646956720609736,0.237894752156904,0
-0.5605179822462825,0.15631859716952895,0
-0.5269634825001611,0.2853922703658548,0
-0.5456537982824057,0.1870256449110384,0
-0.594035093857364,0.2628643936780173,0
-0.5763749067349702,0.29609019152389454,0
-0.5935587693846814,0.29029789323505967,0
-0.6011874722355909,0.14271556404270772,0
-0.5319195852341385,0.1716729083778511,0
-0.559098705687532,0.283780752049998,0
-0.6140135038209762,0.20924740642600081,0
-0.5366747783538954,0.2217422294576504,0
-0.5684442279499534,0.25576478552112303,0
-0.5451877236254308,0.25269971981935924,0
-0.5562377468660084,0.2318835793370166,0
-0.6309236031558696,0.20757018215912076,0
-0.6191034733649331,0.20243019043592664,0
-0.5552158462911817,0.2610185659895122,0
-0.5634133168521592,0.24586211328073515,0
-0.5961931043850301,0.2053786486988565,0
-0.5903624644080692,0.27240927638180346,0
-0.5332907661295134,0.26191196697805774,0
-0.6275619111537212,0.17584057602022773,0
-0.5713017727855141,0.1805351617941806,0
-0.6093033907729863,0.16960666692626006,0
-0.6104786286106331,0.2049832199139645,0
-0.5449201389613261,0.280349946663359,0
-0.5587161198868122,0.17846898569742434,0
-0.5593029248681434,0.22820754480225544,0
-0.53455945113943,0.1860093014723801,0
-0.5985017327298826,0.20588832869257936,0
-0.5650364220752545,0.1434617321592891,0
-0.6140932618667185,0.20799689330312535,0
-0.5816812934368035,0.20939854777310457,0
-0.6035704414649504,0.24615822596753795,0
-0.5912513468171807,0.23036788643092215,0
-0.5652455476208447,0.15934424652295187,0
-0.6346813341037497,0.2735337769751317,0
-0.4877827649389583,0.22989902878645485,0
-0.6412000655459567,0.22936356463662988,0
-0.649971275715257,0.21904478311089912,0
-0.5295849033314817,0.19367604042144554,0
-0.5460022705264789,0.23051404177239332,0
-0.5523411622410824,0.2434633585837866,0
-0.5499588788168663,0.13239916422248021,0
-0.5796852412900724,0.19286591892485366,0
-0.6215006407200342,0.20711662427437944,0
-0.5702815387795492,0.2327325150816733,0
-0.6052331056089066,0.27964954709571616,0
-0.5197923089693411,0.18145696807192124,0
-0.5729451056150573,0.19520592846326873,0
-0.6037823750233873,0.1945373272742338,0
-0.575364125374002,0.18014766530373472,0
-0.5353083489773947,0.25292473205574917,0
-0.5806747677943994,0.2588841798131613,0
-0.5900074969993955,0.16771230604794596,0
-0.5329951894481479,0.2418548125762089,0
-0.5290902755391389,0.13542899332004743,0
-0.5627216719525634,0.19251721700125438,0
-0.5568400943327049,0.20416966381486587,0
-0.5174780343989646,0.3044471244738689,0
-0.5971567440696881,0.20702403759293173,0
-0.5906783394991622,0.11076199116042068,0
-0.5516616253856361,0.1209397314923046,0
-0.5217287138329516,0.22264566815510162,0
-0.4907116635865648,0.2516927436296635,0
-0.42757475209220897,0.23983700572393116,0
-0.45343105626417934,0.22950273013501854,0
-0.4991695357192617,0.27929721672265284,0
-0.48687025830946495,0.19426468781291337,0
-0.5306822167374147,0.2660497886535117,0
-0.47600838794128314,0.13976352860325003,0
-0.483934572783653,0.1761768932100681,0
-0.4476778191761525,0.13113222711278105,0
-0.49938189128097393,0.20780204382828277,0
-0.4261554237534881,0.21929126000085572,0
-0.36948535922823256,0.22736940747789933,0
-0.4454583827599316,0.22481851251333057,0
-0.4137327628181047,0.1754066903307879,0
-0.3930104369022912,0.21233232665311397,0
-0.44118069492669054,0.14703204744588783,0
-0.40342128479038974,0.29012584163518823,0
-0.4074082063106905,0.20684310123607616,0
-0.3964731174841183,0.19764011093119213,0
-0.43323520604680776,0.3015914453079813,0
-0.3864972415215485,0.16009211421071617,0
-0.3558726689670219,0.16598509718897966,0
-0.30117861738899254,0.16751344864955034,0
-0.31865045242320467,0.218990907810405,0
-0.25174966858465997,0.24402607037965943,0
-0.39048920817787064,0.25948827430607174,0
-0.30113873526629376,0.351164278777329,0
-0.3281421782567494,0.11015290219494281,0
-0.22029691141389995,0.25312131636360236,0
-0.3626047311358883,0.1948880202811704,0
-0.356505375271095,0.2434838034677438,0
-0.33674683413985934,0.19187596650188904,0
-0.4051601203873395,0.17748610137658474,0
-0.3173732082207549,0.30721083864955645,0
-0.32109599637295916,0.3151594752724795,0
-0.2676091709198777,0.2242644198520536,0
-0.2499679714412283,0.29071542055093536,0
-0.16511338777923013,0.147598196664042,0
-0.20320799716941876,0.15674940036483997,0
-0.27132459473326503,0.11444628232405238,0
-0.2790952086004713,0.18843395393002288,0
-0.20122030897875867,0.23154961927382536,0
-0.2834183512090186,0.2286676338376049,0
-0.11737471968238407,0.2310518124963827,0
-0.14146908715011608,0.15309188739248508,0
-0.21534771418987855,0.26386247807889074,0
-0.2689498450909256,0.23574612886254,0
-0.1069619910289277,0.26047747902629054,0
-0.17170536203061973,0.12924666807588847,0
-0.09537255704909353,0.23951933189768107,0
-0.22823398382434923,0.1646165389643157,0
-0.16969679627246945,0.20419865033502443,0
-0.13064951871376976,0.25084306989681215,0
-0.11971655248322925,0.22873951728018915,0
-0.13569496645069298,0.18166784998082802,0
-0.07314955785136355,0.22461851878141537,0
-0.14874971292735384,0.14778810721241276,0
-0.09354260800391567,0.28193825477191026,0
-0.07144413460984782,0.21422069600458332,0
-0.042754636398155035,0.2804724061945627,0
-0.02389791888881017,0.1982783366293947,0
-0.1066993217308184,0.1984861335662682,0
-0.11814999961979529,0.18651560565710548,0
0.03147190391290291,0.268593653576052,0
-0.006756509538137494,0.189373411127375,0
-0.05175149315455424,0.25713475261695806,0
0.07227873543737656,0.20584237311513523,0
0.009554372212152733,0.1262268400064192,0
0.07178414578276714,0.1965693136140774,0
0.025240940570602027,0.16618961828765874,0
0.13394316875919438,0.22690017719231853,0
0.1277065401342316,0.1657446662268776,0
0.036515930553889464,0.2716238200487335,0
0.1065561870137442,0.22083128399775173,0
0.09924674954330182,0.21656528927986662,0
0.14439460623617772,0.2582997079095832,0
0.03668465137722184,0.2737604597263977,0
0.1281818731885716,0.27462018743652244,0
0.15572764442893156,0.18712512204994097,0
0.02377317901619011,0.13704666822419947,0
0.06142554886580254,0.19150267318044745,0
0.02747775502224631,0.19500456070220884,0
0.1247904664274001,0.23127805768662227,0
0.18292791328407854,0.20872785298250654,0
0.23092519398082037,0.26044185764437977,0
0.1682331778572604,0.19545605748067438,0
0.25464288625778425,0.22331317470396225,0
0.11285130351235341,0.28542461720885426,0
0.10529015278180438,0.2433765177491586,0
0.19624146200617956,0.22334339196938255,0
0.22673641832273642,0.1963080589594524,0
0.2143654972663383,0.19480372322286288,0
0.12104608222150479,0.18399464241341482,0
0.2283290866217978,0.19953497377426774,0
0.17587556044515834,0.2644286210030289,0
0.28284176400764893,0.21561092750360022,0
0.27589042538972136,0.15927669960155255,0
0.21871030981427336,0.3152338297260038,0
0.2480942962689422,0.24288363663267323,0
0.22884802718790734,0.1565982190521571,0
0.28663170305680946,0.20491295471817486,0
0.34541381200837074,0.2326097322240374,0
0.2561937200821506,0.3123550297498859,0
0.33843618327447283,0.17177981417447405,0
0.29440355650294925,0.27604748505761534,0
0.28888237290338314,0.2972797824408356,0
0.3307093397410949,0.19593275784089043,0
0.2917571369236628,0.21354980415400773,0
0.32321703851321276,0.1756700347307314,0
0.29830603644035786,0.21737245204780511,0
0.4636551308397184,0.2257760223870743,0
0.3743178685692466,0.26064803301073985,0
0.3446194827280246,0.2822347186600442,0
0.39726946720820455,0.19038075388033993,0
0.3878308447681741,0.12947931590252304,0
0.38918604054953115,0.22684334215241114,0
0.43763908250916306,0.24264246961705577,0
0.45140979042397267,0.2904964895052763,0
0.3935189331739495,0.2117519547479725,0
0.3976671115574704,0.2343832341090219,0
0.4190224600903486,0.30397788154583805,0
0.3238975593814589,0.2473523615787516,0
0.36935277387512105,0.20965724388287238,0
0.5194734945221514,0.2033757862806273,0
0.539292996923266,0.21995307125394106,0
0.4504036697825589,0.31034269923176006,0
0.49738888897098743,0.21940067766631866,0
0.48972252823253654,0.22763600791899363,0
0.6335951775755173,0.20457005860061434,0
0.5410118871999495,0.28369491702192823,0
0.48390893004664537,0.3267976238894642,0
0.4476879198886552,0.25139642562620035,0
0.4201900486702552,0.2330644303463027,0
0.5156191115077824,0.23082493881814364,0
0.47244697744931413,0.10983046972254508,0
0.4438543380574943,0.26636336437847374,0
0.4872237422360428,0.2358741539664255,0
0.4699421601760137,0.2506429477020701,0
0.6127246108134423,0.19371274746724904,0
0.5766772913187089,0.21012302522498022,0
0.5363032897810749,0.2088546343510766,0
0.6146836569480901,0.28054704238228767,0
0.548416396913804,0.21058791335088156,0
0.5052214279336957,0.33371893328892654,0
0.6280547730222207,0.25118905013658904,0
0.5823314553134418,0.1659218081884511,0
0.5068846888768683,0.22333863852804028,0
0.5524640010684104,0.19724220908521783,0
0.52130611993424,0.12016685370443789,0
0.4989245963552212,0.3099195362035291,0
0.6172217859088882,0.2651631283112403,0
0.669102193569757,0.25672637909760615,0
0.506290944854211,0.23839620822002625,0
0.6068246676478881,0.1610851587728196,0
0.5484693209973609,0.20606519223207015,0
0.5588382563253038,0.27239509995144306,0
0.5556352388955608,0.1778050717255178,0
0.5439826710445247,0.10383761940450273,0
0.5914019917528827,0.2191307968303976,0
0.5490881237330354,0.22345823152046745,0
0.6056838308545078,0.23738429204498032,0
0.591039737926477,0.2670920654023721,0
0.582859872361307,0.2626064358406063,0
0.5505494147465461,0.24372464749364237,0
0.5680737914487615,0.2906227386381822,0
0.6355308923660153,0.15495769219558153,0
0.6235201833960906,0.2561952839625173,0
0.550173412364367,0.26235312340789535,0
0.6044583668911254,0.1691081029394367,0
0.637365311006071,0.1560026988117297,0
0.5164934510008126,0.1939091349244696,0
0.6271630037343697,0.19818918112488554,0
0.5667585969502308,0.26899723842817214,0
0.6281780447662301,0.20065933807089636,0
0.561107070581866,0.18862886334379136,0
0.5085115170887525,0.20092461442552412,0
0.516727887599729,0.2874979299703631,0
0.5997225858606822,0.23227849398390063,0
0.6093819132629973,0.2727237859996079,0
0.5501217370505265,0.22624607433480143,0
0.626073542579305,0.2964093779885806,0
0.5097391106015573,0.19440778694449284,0
0.5880474628769935,0.29770179982406064,0
0.5292024598924105,0.2425112122255311,0
0.5554291230968414,0.224025440183089,0
0.5885247562715341,0.35715144618097094,0
0.541134708778772,0.17938445879672751,0
0.5627952691258418,0.21454215731070753,0
0.6300729561171438,0.1706648953332583,0
0.5485171067103548,0.27996956782066723,0
0.6166183507186013,0.3168659279788432,0
0.5156896827752185,0.31596263236889166,0
0.5958763550723484,0.29372394295836046,0
0.6385461725745419,0.2227054939136624,0
0.4398382504824923,0.21438448043136887,0
0.5204002784439584,0.1491480526835584,0
0.5857957674418279,0.3345602300697518,0
0.5433603171296257,0.256275469220486,0
0.5685143911007015,0.20828873207198892,0
0.516077243559115,0.29934943376721196,0
0.5468011294640563,0.18436837548226404,0
0.5307595127882124,0.25339771503379827,0
0.5928817029912197,0.22449516861052327,0
0.5430412797864818,0.31512049432148054,0
0.5429073699399655,0.23006797237055993,0
0.5010207258284022,0.16076026677670524,0
0.4927029421156755,0.2371454919681688,0
0.49080639579509455,0.28586989243083555,0
0.5273913944074522,0.23202587704676866,0
0.48173855965692325,0.2723024654213227,0
0.5122811476013018,0.1813302470605662,0
0.5964538267570271,0.23235369368317674,0
0.5310193271947982,0.20250122259464093,0
0.4658303313594311,0.2711357993567058,0
0.5367509436080964,0.23542134746697058,0
0.4507367797591284,0.2684104651731019,0
0.36357744639848943,0.288352314666565,0
0.40931659303488027,0.26860773411714167,0
0.3603139695562962,0.24774273907815492,0
0.43030730475284984,0.1842362164403029,0
0.4427314257853401,0.2340675358349286,0
0.5194593962144767,0.2076123332698825,0
0.4457118232108641,0.2171236675378633,0
0.41204067893790836,0.21566016983796255,0
0.45800001123253226,0.18545061063876336,0
0.29941224035211483,0.13663997192357658,0
0.41509574662074217,0.2011597609662882,0
0.4351125442707962,0.24429589798128495,0
0.31580402563243076,0.16727808511610298,0
0.43999643596785276,0.2355310612134592,0
0.3927218678346944,0.3298203826078267,0
0.3479354782187323,0.2860198011572909,0
0.3931579209559934,0.3171040608531059,0
0.46779018512225423,0.25454339124611625,0
0.3560049826800603,0.29342250055120267,0
0.3518999106523918,0.19890878488089148,0
0.3090208200391953,0.20295002005558213,0
0.28192110861179503,0.09827003510220816,0
0.3582807816723041,0.2945943311135973,0
0.26623840508998425,0.3123632684048771,0
0.30482921204803437,0.20774821914891978,0
0.269507802385175,0.22276950809882198,0
0.3094126993444723,0.19783399973653615,0
0.29415490869765065,0.2547197949973593,0
0.3212937760820899,0.2918937566910472,0
0.2357996467980762,0.14856854273423362,0
0.23963096660131553,0.25623907996279877,0
0.19595319279525134,0.22199357684712936,0
0.21438767233057116,0.24155689703382155,0
0.24712449387936294,0.2588968895216021,0
0.25771410894972474,0.226597079501647,0
0.1653116054633874,0.23088787077239953,0
0.2464072669413232,0.22543346706735706,0
0.26216980083410996,0.28470304753690356,0
0.20647637019312065,0.2571852474562648,0
0.271018865523592,0.24733643833915853,0
0.12982375969043125,0.1728196874000768,0
0.09757629544531898,0.21749829829643372,0
0.06213247539576491,0.2814207554764506,0
0.2170957952296198,0.23843213811808855,0
0.16620458500794782,0.2695838949437498,0
0.12186942540095848,0.324992923483075,0
0.12978109164778912,0.28865764892953466,0
0.050615870839551956,0.24144527435648144,0
0.22026126939516277,0.21129791096410844,0
0.09549578944131797,0.10922990167350033,0
0.08554527617059078,0.22854814735505313,0
0.1073864579611837,0.22072678069025378,0
0.08615500510942692,0.25660572720326547,0
0.06429103380485668,0.2294521681371628,0
0.004553320294237391,0.22118818851645794,0
0.05862064464919374,0.1482975069653371,0
0.12011066271622743,0.1903290740355953,0
0.08423673461203171,0.261220029535527,0
0.08757749864326173,0.3232428710545343,0
-0.02669198274663322,0.23263123231301888,0
-0.05966054884656945,0.25395806718140673,0
-0.025516446906753115,0.2852514333527413,0
-0.025483274529206276,0.19714284069748902,0
0.017404067355151695,0.2560882516741741,0
-0.13095624213381774,0.20078305619569456,0
0.02112754318781096,0.2811087954392535,0
-0.07225473870896079,0.24549773791469007,0
-0.09468812879427195,0.2529101882185759,0
-0.1329223410935683,0.19891767965097495,0
-0.17401427726437674,0.27345923950484413,0
-0.059046473170252065,0.3424032795882561,0
-0.10544986783591617,0.1878320607576955,0
-0.18249975309753536,0.22129970714913014,0
-0.19161474532194328,0.24992804324231138,0
-0.15248028169603667,0.2777279921360981,0
-0.06103934316049234,0.2104903792742343,0
-0.16623649066518437,0.09687619103397124,0
-0.23714571117863092,0.30654719225170995,0
-0.18297050761226621,0.2766730355251163,0
-0.19297549632858066,0.1515603650239764,0
-0.3227988168905119,0.20838931396173238,0
-0.19924163864208236,0.31723688702947694,0
-0.21660132599773138,0.3112775984784044,0
-0.17872533911382227,0.2858797906918588,0
-0.1295203348794655,0.23020217986231895,0
-0.1740218765856731,0.24321718450333807,0
-0.25212415043672115,0.2325815353088067,0
-0.30228130376728374,0.2955998267309554,0
-0.12650613268119254,0.19545572924515847,0
-0.2603742680451561,0.19901787882810423,0
-0.2707398879423932,0.28988160291651577,0
-0.28068202270404596,0.23720981280153733,0
-0.2775473703137345,0.3084112653522063,0
-0.30258007878208687,0.20597229923288912,0
-0.3318884187060603,0.2368690035673756,0
-0.3383225517392999,0.19354728434451968,0
-0.3203208121293986,0.2400960796602962,0
-0.3534854363223474,0.16586061074157837,0
-0.36951330532326226,0.21546629854617066,0
-0.3360303734623608,0.16809528834991339,0
-0.361503962843711,0.2746641552582827,0
-0.2808793340361151,0.2758574725891028,0
-0.495870353690515,0.15357488107930345,0
-0.3159067511660085,0.3068423168809498,0
-0.3152537864880519,0.3650787979293144,0
-0.48821762228934695,0.2425683729475392,0
-0.4085850770177963,0.2082723526018904,0
-0.4168362791305513,0.38160460716567546,0
-0.47536276099596786,0.17449966470279804,0
-0.45050882363092276,0.24151342496377898,0
-0.4736839586849821,0.24954922725432074,0
-0.3369836984773521,0.3078855066477458,0
-0.38415876685084255,0.25867508638386494,0
-0.37361236575949025,0.21581645484050344,0
-0.40725449826829824,0.19324894311292867,0
-0.5058378193956535,0.2237770826224202,0
-0.4815561463009332,0.19058181758987022,0
-0.43670272750515887,0.24337946362876206,0
-0.528014260220383,0.21283840064890408,0
-0.4368881491729844,0.16640633197984134,0
-0.490077047420535,0.30392552306547455,0
-0.5022157743279637,0.21634461947767786,0
-0.45323071000541676,0.1778814174027647,0
-0.4717583287730281,0.2829353129295537,0
-0.5171002187694632,0.2448268599547142,0
-0.44605231093587283,0.15414495737978007,0
-0.5629242027240589,0.25811068901742035,0
-0.4828107320533162,0.1892304392290195,0
-0.48857208891031806,0.3271997701254726,0
-0.538206225647919,0.26790636727217043,0
-0.5108050928397366,0.22177335416526833,0
-0.5939303544180303,0.20456997715726713,0
-0.4893153779208971,0.2366399922973539,0
-0.5487820683773733,0.2725879267571001,0
-0.5695706101146519,0.2407336952510761,0
-0.4947578735778948,0.23121047332589373,0
-0.586074914935316,0.24504694022603182,0
-0.6248048803490912,0.21199549112568977,0
-0.6356112472469442,0.22508815334778612,0
-0.530750378981482,0.13801883974708828,0
-0.6282158029749645,0.29105478523735734,0
-0.47946974079426796,0.25736837471322754,0
-0.6741920046875901,0.20381570549786843,0
-0.48802911360211565,0.33748525876970237,0
-0.5649271426711412,0.24695934572396022,0
-0.5828088445431018,0.19086135510798152,0
-0.607582837504175,0.2855654167826647,0
-0.5626117552573702,0.26269096853700546,0
-0.5865494498372313,0.26257756898815376,0
-0.531468772765503,0.22162080148376376,0
-0.5827551877279639,0.2654933799076455,0
-0.5826503196194378,0.2299406912100895,0
-0.6099106036158506,0.27088569030583687,0
-0.596007251369441,0.14790140702541327,0
-0.5790649254880369,0.2215149685793862,0
-0.6811232492861394,0.3293764086211559,0
-0.6640484246130625,0.20497529296313163,0
-0.560364547779304,0.2131967628608878,0
-0.5897371525243098,0.22105062281544882,0
-0.6080961649566219,0.1827683949459159,0
-0.5984556366923715,0.13315467493133593,0
-0.5823422355147976,0.2320994058189684,0
-0.6269168662151023,0.25048170895163235,0
-0.6389152066494554,0.24112349632301738,0
-0.5901423063958074,0.23656483365495612,0
-0.6486513322720664,0.24602081729727035,0
-0.5789817512386598,0.3450708593346896,0
-0.6840489132200644,0.2344664884630911,0
-0.5468510514522703,0.2153446809075889,0
-0.5739319548037731,0.23005254751994858,0
-0.5838774030404188,0.27313617175459215,0
-0.546525667469423,0.3148301896963163,0
-0.5112323191632113,0.2128816708130954,0
-0.5424981232186458,0.249295559125399,0
-0.6838359768020636,0.26132675387315324,0
-0.6542121300379651,0.1948399934423146,0
-0.6197809593926835,0.24554976414180216,0
-0.5854083443298734,0.17130522491645198,0
-0.5588693453159463,0.15619641459898725,0
-0.6189458656645609,0.2630462621829705,0
-0.5710941708809353,0.225575216724219,0
-0.615843451664243,0.2549429861742196,0
-0.6061604894316692,0.2439942289451416,0
-0.6432970130178242,0.19612898736476972,0
-0.6163746401817654,0.24274628670214327,0
-0.6349165144647968,0.18341394855201779,0
-0.6131161950545545,0.3146776437052311,0
-0.5085023173763844,0.17739052056456334,0
-0.6053885668969645,0.23545978626153294,0
-0.42290681781800876,0.19319548241000006,0
-0.5263411797559795,0.27389013248280275,0
-0.5381210779665074,0.22885751725308828,0
-0.5865120671117038,0.21955576183850342,0
-0.5046863199978908,0.28820918707454213,0
-0.5644685685044051,0.2470806514082425,0
-0.5254491904156863,0.27150135612356374,0
-0.3992875400148318,0.1966628490032926,0
-0.5277168981200695,0.175548310635191,0
-0.46095341933714806,0.2512095679359735,0
-0.548961158683997,0.22996686406163072,0
-0.5108201327613071,0.27729092746146494,0
-0.41568324265809353,0.24203378320804075,0
-0.5306094916329943,0.2563429848053002,0
-0.4035630020461533,0.16498010334890703,0
-0.45360970590848565,0.3406310888290825,0
-0.5118212759515246,0.23805715459916857,0
-0.4466681519320478,0.28120861437013056,0
-0.4241426159266363,0.2045846943445898,0
-0.4360540929086582,0.26184978496883865,0
-0.5399238124722663,0.1813670636841348,0
-0.49193245750607956,0.26917270577575614,0
-0.462010917317839,0.22883062164588142,0
-0.44731375979372473,0.24814886306435188,0
-0.4064146768851855,0.28164805137647886,0
-0.42231991337320224,0.18518234631136046,0
-0.49163077149044526,0.2126447873441351,0
-0.3994156021765194,0.2697955999315137,0
-0.38136296421611204,0.3519004716069133,0
-0.37727578761642744,0.24014529314890232,0
-0.34450714155938983,0.27666622778057354,0
-0.35004027570931673,0.24182086039385337,0
-0.3618784719585716,0.34434172562699283,0
-0.38135931023950076,0.15992837454331554,0
-0.45382666564669494,0.2520805221274467,0
-0.34214095672387296,0.21613228021827624,0
-0.34599801447189604,0.12214091537194391,0
-0.33548291741122305,0.2624026085570711,0
-0.40549934308794233,0.2545644077109537,0
-0.3882370742852057,0.23340768301887116,0
-0.2739729165452759,0.24239983740639404,0
-0.32098032616191896,0.4026845256143451,0
-0.27722697540098107,0.23492080901161091,0
-0.3021147175481175,0.2733957959780869,0
-0.29420240759985045,0.21548134893728954,0
-0.24086833818844194,0.2627712306724142,0
-0.30561161336240295,0.2361579301700037,0
-0.2669665348717817,0.22760370178869854,0
-0.2867877114553379,0.33913456453760177,0
-0.27724015052161666,0.30710889808920294,0
-0.26275721222136933,0.255146994302348,0
-0.22791892829403293,0.13315907713758862,0
-0.25463568467560793,0.23037922477455897,0
-0.1595306042476473,0.3836410761598421,0
-0.2586183590548262,0.237016626610003,0
-0.2147525038241322,0.30377060054707183,0
-0.21886967529604265,0.3207668540444194,0
-0.11596364149389105,0.2596779417419886,0
-0.16987137243548633,0.20669867635818273,0
-0.11945258145947302,0.12708415336484638,0
-0.2366296145801637,0.283117942386839,0
-0.1402689380063166,0.20823199381761437,0
-0.10037482072001613,0.30783732855557683,0
-0.13194411797229658,0.1865988009841245,0
-0.07395530475073786,0.2358879529424831,0
-0.14423580965038224,0.25089579471344636,0
-0.03901915137511758,0.2626995330230091,0
0.014368152810095028,0.19358875660557393,0
-0.10978603194225556,0.3092354254136628,0
-0.10496573312281507,0.21960515074139703,0
-0.001049075675079239,0.16578642895773382,0
0.014249384890025543,0.24411874298462338,0
-0.08186842186354548,0.25134869143652006,0
-0.06771828291996256,0.2577194096461855,0
-0.051771068607179234,0.31785657017425195,0
-0.09586868786143421,0.23798752015560554,0
-0.06553656728293292,0.2438889927763604,0
-0.06076435638800712,0.1947707669355448,0
-0.039898142793681465,0.2910176731439948,0
0.005806887707689026,0.25926546320590554,0
0.028299549844846693,0.22910863563969278,0
0.10315774533736173,0.1549362993335282,0
-0.015246904853402951,0.3224506557619562,0
0.09291710659953056,0.18890605978879946,0
0.04202179275307348,0.2207861695455175,0
0.05925630461950172,0.26832730757020345,0
0.10446467747823243,0.19064219758796944,0
0.023565726164836355,0.17585461710854705,0
0.10778230816556592,0.14439273888857151,0
0.1059242558803121,0.286699977671287,0
0.131141830630859,0.22345082979208958,0
0.12987109033245525,0.3971336586544727,0
0.24704480149554958,0.20111241275166294,0
0.10123166018961441,0.20481762686416108,0
0.11537739440766519,0.22268054152373754,0
0.11954651264831408,0.26316693479733255,0
0.13167169742685864,0.227560047103543,0
0.13628194038433022,0.2817468367453347,0
0.23626961521625114,0.20226081854817682,0
0.25647126981651436,0.18217066412683094,0
0.16549382577918242,0.1613995250819551,0
0.1609543061996261,0.14019156565795116,0
0.23463772548671258,0.2255268350834586,0
0.19190264425884454,0.23644128243995083,0
0.25955730065002725,0.21997845868785323,0
0.24640192842839403,0.31378061192377105,0
0.16875989523809887,0.31307184454722015,0
0.330158054505301,0.23499019669698876,0
0.3507548679181475,0.16209430241201617,0
0.23844037554355224,0.22351511467126214,0
0.2577523469655569,0.22191931238056223,0
0.2994252655181304,0.21911364596491287,0
0.30978454400183936,0.21714446088630399,0
0.33385196028901004,0.2194172732973764,0
0.40922956067547,0.23282334929112924,0
0.30759633124208496,0.22043338714763985,0
0.28418120391197477,0.2626865795220978,0
0.2627087521227794,0.27034890188846167,0
0.3026314087649343,0.20685822373649465,0
0.34494760236577887,0.3160037563983713,0
0.4436790381485599,0.20350738700838938,0
0.3353372563428161,0.1716804834120537,0
0.37959172451660805,0.2716694296734737,0
0.3746818827408606,0.21182013138690456,0
0.4419379715124127,0.2688151236478914,0
0.5157931932623677,0.13262713205739596,0
0.36974280522665265,0.32249337118897636,0
0.37856379552134656,0.28654525651924356,0
0.46190165174832193,0.17796677066147384,0
0.4503528245556135,0.17911175392971013,0
0.5150635671320625,0.3367239173293013,0
0.4582983976743945,0.21630163895192744,0
0.4174135582992242,0.21152140369259467,0
0.4710880379523572,0.13998805342416218,0
0.50306716298582,0.2358117598539491,0
0.4946309521760308,0.24202470139463966,0
0.4848422162765176,0.28924534897730203,0
0.5185793975493974,0.18357678473200445,0
0.5293717557602993,0.17757637853159824,0
0.5455691159283851,0.2761988618848531,0
0.5143424643846292,0.3040472457097829,0
0.4788872442838343,0.175213136594936,0
0.49980417169534125,0.30790647046821773,0
0.5579072468801025,0.2557678702299722,0
0.461735135105257,0.30854105711176394,0
0.5259013756780093,0.25049978408455126,0
0.4925711212461615,0.12795691828843503,0
0.5183291295150161,0.24653245704943114,0
0.5853507242185371,0.30719802910119703,0
0.5354007115080225,0.2095635492158483,0
0.5324655919004353,0.23491261372706188,0
0.46632836547534845,0.24556419899728604,0
0.5756897102169063,0.10945519218381136,0
0.5745846290868241,0.33805827695150975,0
0.6542831782558881,0.20948212618717768,0
0.5344173196376251,0.2798976938080769,0
0.5643244658449056,0.250335877379427,0
0.5692709705049074,0.3176118990072059,0
0.6389826245816425,0.2750937643130424,0
0.5585259431133723,0.24310475661799005,0
0.5802944164590492,0.2102352275704753,0
0.599661952975436,0.29486352926794673,0
0.5813918727377332,0.1613589410035094,0
0.552403891062452,0.28738553921743537,0
0.586963486716403,0.2001987926282976,0
0.6333426736101485,0.3178252253062737,0
0.530605557521286,0.26333603134397693,0
0.5907176634641438,0.2875372546057481,0
0.5510681308402715,0.25949051890687913,0
0.6476981733291014,0.1678322354609938,0
0.5135244196325253,0.21247464405067717,0
0.5633414528433948,0.28919058110341367,0
0.6116174118101324,0.2639639170932373,0
0.6723674506495745,0.31474063349292913,0
0.5920030219866376,0.2759148783819046,0
0.5685944264631604,0.2074760676973135,0
0.6913404639213403,0.21606796734881525,0
0.5256742518230808,0.26107705576340934,0
0.48879093390801087,0.14028899493964267,0
0.6212520383441076,0.33972330452319766,0
0.5745323696235822,0.2781985590633268,0
0.5488207985820274,0.31752296409929304,0
0.6354111577287423,0.17720104920879143,0
0.6121577790785411,0.3185195162694131,0
0.5716017378020687,0.3679262158054382,0
0.535491930145989,0.1903673644875854,0
0.6426951199337395,0.2950413840040401,0
0.6310111374887288,0.2565868034956169,0
0.5928349620359752,0.1793696258512405,0
0.6892822941281489,0.2812955288586467,0
0.5424670994153036,0.29839150251032115,0
0.5185803996257222,0.22671502663741183,0
0.5590112557226821,0.3151271922860158,0
0.5899423244009019,0.17355320793619522,0
0.6028688437146923,0.18221358295557344,0
0.5769859401307875,0.2638412720598937,0
0.6048623866545205,0.25834067818147016,0
0.5227609282218046,0.22130275186405177,0
0.6554712581916363,0.29767116008625183,0
0.5769879110261191,0.2837961660008555,0
0.6346405145149187,0.3002184158391593,0
0.5934605819776736,0.25121465252724556,0
0.5965794637254016,0.28756049969617653,0
0.5995171387497902,0.23520898314816022,0
0.5905712757370718,0.3602424448063902,0
0.5973498064709073,0.2169842337983616,0
0.6285705395871212,0.412936405779777,0
0.5687103453973388,0.2594759436637323,0
0.5909787123077485,0.1890160138332252,0
0.5475596042910751,0.32625553783849287,0
0.6204445335404584,0.2642066517362112,0
0.5108865813048026,0.3005277992378757,0
0.6308968306428467,0.31922440224839393,0
0.5348624902644906,0.274989396030916,0
0.4612300829481893,0.22853958808542452,0
0.534951313545206,0.30699731121192825,0
0.49015052975973794,0.25830942970359594,0
0.5617730629563454,0.2926245572636876,0
0.4825292275327796,0.15070514964609405,0
0.488153605919331,0.28080077618856025,0
0.4111719708384004,0.22658241108321658,0
0.4781048950000638,0.3412371962017951,0
0.374483543193378,0.2897860937397238,0
0.411326909023932,0.2706846256401344,0
0.5232757385659563,0.2830672500175811,0
0.5191675822986286,0.20888971970863457,0
0.4956638573802786,0.3400346088812737,0
0.42044766148069906,0.3585003072781167,0
0.46070974724985403,0.27863747388708276,0
0.45710868850774433,0.33857198879075434,0
0.39346005626971403,0.2306544124308462,0
0.5205350004866222,0.21931615605562438,0
0.48311868189595736,0.26127808380572004,0
0.4219879188895681,0.2810389102900693,0
0.42806747166504305,0.2396525363119188,0
0.4307323002516166,0.2863002918948995,0
0.31172078274303994,0.2747913684825465,0
0.39484888943622853,0.2096165676167235,0
0.3664161459790603,0.2855315692562628,0
0.34365084752256186,0.3028283425121533,0
0.37280375596196885,0.2682854082679973,0
0.46978201599216346,0.31740435955396284,0
0.40489233173403233,0.19896177671843107,0
0.33715892136225534,0.2832894995022717,0
0.3871314977361142,0.20143795507824086,0
0.42117306535244436,0.20430793448882573,0
0.3900600195151368,0.22852547271599108,0
0.3393546808312166,0.2130290172265688,0
0.29649463145533894,0.23279224747062469,0
0.35614613839346526,0.2495445348745226,0
0.33322966906682017,0.3021697867290517,0
0.3505641595582043,0.24431412247959786,0
0.3297426222734334,0.1811508010788038,0
0.34257341547738485,0.317495490744442,0
0.255379774983317,0.21869760374133246,0
0.3399928124710523,0.2576761010692535,0
0.27592230488055325,0.282998959773921,0
0.36166406379832494,0.270712667349425,0
0.21524165685138785,0.3155011358077601,0
0.328242462919673,0.28480232760372476,0
0.24302811262747623,0.21784670345163187,0
0.19219694041890514,0.3699003031384709,0
0.1921576853237035,0.27074887960819993,0
0.19186953178549823,0.2537252071126134,0
0.22058282408243216,0.3593485015988677,0
0.21695857654366324,0.27368478974499333,0
0.15353066986832098,0.28123366409785655,0
0.17235535752518266,0.385941466383325,0
0.27200453732657476,0.2476362070429388,0
0.24254860036078135,0.2455642457572218,0
0.1692325215512899,0.2673412280611153,0
0.14052787357157764,0.31514811124194453,0
0.13580909223858897,0.18630562495577307,0
0.1516337218565633,0.1634145438938683,0
0.060940976506585136,0.23239658693908666,0
0.09030906308148817,0.18011621451953014,0
0.010822500295175772,0.24063080709861306,0
0.10526523355580418,0.28705737128375997,0
0.1086968426744409,0.21745495530208278,0
0.0431933255069054,0.1907110816430293,0
0.13705226817958716,0.2655792805702643,0
-0.011948346003964647,0.30529960871765593,0
-0.03290302369854129,0.17748377456346726,0
0.04250492329060496,0.3033040784069976,0
0.07459674336512588,0.3032177806810151,0
0.09739264905577953,0.3101167376043307,0
-0.018796514329560754,0.32339650524248414,0
0.04903223128814271,0.3726332027342811,0
-0.015875627980378882,0.244787916072748,0
-0.03162679019888263,0.26813110950999414,0
0.012147582029552122,0.24189062084610047,0
-0.008451973075326365,0.26287139674869275,0
-0.1289110847243128,0.33947623429511825,0
0.014723575659391155,0.1956418543191697,0
0.000902605919007135,0.2199001069098248,0
-0.1083631248304185,0.3318716493457322,0
-0.06626030557437475,0.3140744398680091,0
-0.07029489045676107,0.24497604418445115,0
-0.09088701899928779,0.3059127385837416,0
-0.1403366323747492,0.2803134426547077,0
-0.15527754559897528,0.3383263929825559,0
-0.13182139949233415,0.2670981542262456,0
-0.08072486733264414,0.31471429223093655,0
-0.1209672306773735,0.44559329406433895,0
-0.17543017423968693,0.2934576682944817,0
-0.1270310494725826,0.2660791308342511,0
-0.3167219686912487,0.2997950838079584,0
-0.12549575629514284,0.24546870363911566,0
-0.27851731963949045,0.38319114382794695,0
-0.21820769709050283,0.2728563224389099,0
-0.2645776481158481,0.2502661165452357,0
-0.28178927904480233,0.22218834430791,0
-0.16742554153403294,0.3188938161416342,0
-0.2572123268749268,0.3074521892050997,0
-0.2248092670510374,0.23928511199540856,0
-0.25273260309148265,0.2930354098246349,0
-0.23472968726789709,0.18884505616027136,0
-0.2628769657760798,0.2735813953269725,0
-0.3389433295851456,0.28703069617954985,0
-0.23299352472683116,0.34981938105607674,0
-0.31544350860791914,0.22597196244408166,0
-0.37646744634580165,0.20065528314280037,0
-0.32785884646755614,0.219861528539065,0
-0.23916012322267205,0.2478645135719716,0
-0.27936057545611837,0.33158581847806723,0
-0.34690459896466175,0.34224492734372036,0
-0.35446025807681286,0.2808838034923604,0
-0.36052784508120267,0.3259977338815769,0
-0.24797905759223535,0.2716909176287317,0
-0.3400100163713028,0.2602974282170821,0
-0.3448133483766235,0.24846114165183283,0
-0.3219265694897472,0.2496534850380431,0
-0.3685416445143871,0.18784296879387033,0
-0.4003870172925726,0.2785057967920893,0
-0.4041180753845236,0.2633363751034207,0
-0.40465662240315725,0.3026811188204171,0
-0.40962240991845184,0.27014926944085427,0
-0.3779718010698265,0.2573979215428697,0
-0.41825370605904255,0.2220334671233432,0
-0.3906209824082294,0.2692607924672133,0
-0.43759360867705116,0.3026250041693338,0
-0.4358321868121709,0.20860620507673316,0
-0.5457801086712459,0.27020685431736363,0
-0.406058391250068,0.27754532621220135,0
-0.44045225819128947,0.2300499514572144,0
-0.4136739473749248,0.23662038739512806,0
-0.6140795376494372,0.2776037570812393,0
-0.37043359946124926,0.20946217573069792,0
-0.48730936153954635,0.2836894244101992,0
-0.4302890181524296,0.22148553196717005,0
-0.54295124644038,0.31945594730419136,0
-0.4654633621083344,0.383264661924346,0
-0.5538060883314461,0.22339544657224047,0
-0.5372430115765746,0.29320369177846567,0
-0.4151571307318284,0.23021621541803147,0
-0.525080742005147,0.31866103135442236,0
-0.5092456240883302,0.20341041421267264,0
-0.48106620949045825,0.3407626845907195,0
-0.5041184995749508,0.22314391032726674,0
-0.5255943306556002,0.2565041412192164,0
-0.5189586334083555,0.21536211891916995,0
-0.4210051068452759,0.3080909182237235,0
-0.5479029205674637,0.22518438895935694,0
-0.5386891401030303,0.29469163165032813,0
-0.49980865476103814,0.24994852927302058,0
-0.5005367121175844,0.26148982409859456,0
-0.4998066900374177,0.27466125006094466,0
-0.5304396921366178,0.22924223311039624,0
-0.6226165161321718,0.2779118343727835,0
-0.4867561275373062,0.34397021891586016,0
-0.6285771001852386,0.22860876340890438,0
-0.5588302321207368,0.32616402186663285,0
-0.6142474065013741,0.34253840837973026,0
-0.5821809887215135,0.22688578925633934,0
-0.5648447018808842,0.19500082045561445,0
-0.5673914810403523,0.2829116077211308,0
-0.5644070968107519,0.24050319857659935,0
-0.5067281721452916,0.3613637476754936,0
-0.566513995336251,0.26973397574473557,0
-0.6030414864978052,0.2279436403203855,0
-0.5441378364069254,0.21075564717395934,0
-0.5342424630636722,0.3226688826814869,0
-0.6563351110422044,0.23967444802513657,0
-0.5661881078653488,0.2704850987047678,0
-0.5619672726098167,0.3161438079897709,0
-0.6127360703988587,0.2442007651400058,0
-0.5297685379467283,0.26617725330193975,0
-0.6066164808973974,0.2677052862502223,0
-0.593258414007826,0.30275994431955333,0
-0.6084779788866275,0.29819094752166553,0
-0.5991961368180054,0.2577080561858083,0
-0.6548030613181597,0.2719562078257761,0
-0.6718695818968177,0.25024481617717625,0
-0.5198830562310275,0.1950131584097789,0
-0.6415612481209766,0.2818338336280581,0
-0.6482513590630763,0.3636233908022055,0
-0.7056836186210871,0.22488785772839948,0
-0.6291585340151964,0.23048234128521794,0
-0.6624254151500035,0.2256574501855665,0
-0.5130950052052917,0.3054834397063102,0
-0.543494349941483,0.29173813548237654,0
-0.6270470417088003,0.26144699015413214,0
-0.4785372391872432,0.22353293369540722,0
-0.5404557818591622,0.27411273836175215,0
-0.6040365412661177,0.19132280441536625,0
-0.7108824607297519,0.2767852511274316,0
-0.4693489645684905,0.3132501540913541,0
-0.6512258086877695,0.207173989957674,0
-0.6617358776272297,0.19316804495027518,0
-0.5259243553299409,0.3488258653789018,0
-0.4525209239150809,0.2893260008213301,0
-0.5026198800495273,0.3267713870961509,0
-0.5408329596774304,0.26233412354146873,0
-0.5363561493757341,0.2619962779566944,0
-0.5203597629310657,0.2920746657809935,0
-0.5218927062764881,0.22601409997123967,0
-0.5424608059361253,0.2768989119857445,0
-0.5478649647378313,0.25125959607215803,0
-0.5526335043212769,0.20436940664551156,0
-0.5835059029291861,0.2873281945544836,0
-0.5560210912718977,0.2573487124766683,0
-0.6226915495232463,0.26272287340072925,0
-0.5388946660862826,0.21012607965465718,0
-0.5792197455340532,0.35026415721590576,0
-0.5806616435452934,0.3145898601494719,0
-0.5120599197097055,0.3190219570411655,0
-0.4469084317975129,0.2556019397128829,0
-0.4659291380797415,0.18447504236219647,0
-0.5855899851255434,0.3686400679642435,0
-0.5516510000055719,0.31799933544187503,0
-0.45012143728689813,0.23367423304356624,0
-0.5411616747438865,0.2920143135711251,0
-0.49803434114086415,0.3295902862495348,0
-0.45395471824123457,0.27014173104749706,0
-0.5244196624397023,0.33528302925113956,0
-0.4651704987356532,0.32556427978241476,0
-0.5314703664997077,0.21765523548886886,0
-0.48906156489306024,0.2378448015783985,0
-0.43712376407834563,0.3194711770277612,0
-0.5267791503697966,0.13602370267565134,0
-0.41902061563798504,0.26424155821032425,0
-0.43584080151561727,0.2002327947897406,0
-0.40095005015089086,0.24800667680169847,0
-0.4109969843220429,0.256953374424315,0
-0.34750777129102084,0.2540421719828002,0
-0.40288110164023305,0.24440134027494567,0
-0.4239470651503567,0.21721723240153587,0
-0.389604817894952,0.3867299902263114,0
-0.3617076772981448,0.3655675390958451,0
-0.3794939992857118,0.21415115987736388,0
-0.3728849583636449,0.3514203004577569,0
-0.40290638099156323,0.25240120037133634,0
-0.3937604265986009,0.278893860563965,0
-0.423472194793553,0.26933080090493416,0
-0.2585092654708735,0.2395670788394821,0
-0.40074872963684194,0.32180714008488825,0
-0.36569127757507297,0.2789688614358143,0
-0.35938152365286646,0.2489069757484198,0
-0.27105650250867247,0.20756508672175877,0
-0.32281992670411325,0.22817482022822683,0
-0.2378849795435717,0.19084557713647848,0
-0.3260779481755293,0.27358577233974224,0
-0.2705185260193027,0.21320132730716446,0
-0.31823569245582295,0.2598165932978577,0
-0.16114809739652475,0.3416597236067038,0
-0.3196616312006228,0.333179621574665,0
-0.2366076217044302,0.2716608102258553,0
-0.2121694121386961,0.2689804306262292,0
-0.21487242683099197,0.36738840640683756,0
-0.23647730387955734,0.2994924969561232,0
-0.22530280822331508,0.25712437994676196,0
-0.20817027612041947,0.20227380908696596,0
-0.20921217290130298,0.29332838785362625,0
-0.1451234200202225,0.3151609275769327,0
-0.07420255252789262,0.24217217472450783,0
-0.20397259608439466,0.2883749007094922,0
-0.23591740084958016,0.25569611020923955,0
-0.1631325125786817,0.26473316699744137,0
-0.020987995930616954,0.1496036960816754,0
-0.18137812754700205,0.2629657407763856,0
-0.050427375976571265,0.32258328808499565,0
-0.03965687779895531,0.2426047071886655,0
-0.14235192923518675,0.2768611653801597,0
-0.07732787586287804,0.2364973236371984,0
-0.015437648929851958,0.2923769547888335,0
-0.10687228403178312,0.26358872309978665,0
-0.08913333256806265,0.22751281794489545,0
-0.09905881712722303,0.3411624803646527,0
-0.11171714680524103,0.32104151966040756,0
-0.08443385464738559,0.24440959278978852,0
-0.10414583560265747,0.2996043584594866,0
-0.032213723622659764,0.30164555513201724,0
-0.06337791763641698,0.3069500287439575,0
-0.0041456599499600545,0.19018218419604527,0
-0.0845818351326587,0.3252853180498311,0
0.018806405440048878,0.24653005485431354,0
0.05298777390689149,0.2571836183309372,0
-0.07932909743208492,0.40702911461841107,0
0.04810224104478098,0.29028870804385215,0
0.09981790218427594,0.2559389272378433,0
-0.01302130152565565,0.16505034437480726,0
0.14010486911587197,0.34486328171232083,0
0.08642985325687416,0.20817460347697336,0
0.03921606771999903,0.2253231538448288,0
0.08064902449282076,0.25898749606781196,0
0.12030566131521161,0.3464357126096196,0
0.10512040563373351,0.31433713436029337,0
0.13716570751590496,0.2678432715373929,0
0.07307692516563298,0.29120976221374745,0
0.1364342473861148,0.24583588639065157,0
0.066106972649382,0.3328978675148749,0
0.14002676781206624,0.2796420322779146,0
0.10915494347339864,0.32447370182547597,0
0.1263009711082001,0.3244541251657563,0
0.23357217244216977,0.3008541001564915,0
0.23498399107619705,0.2580978651713046,0
0.21948532043418503,0.3133663697705165,0
0.14297970486801356,0.2717368437432584,0
0.19029689987504383,0.22229956062015455,0
0.2752472985622691,0.2562909014626647,0
0.2301045344604803,0.28074165224982833,0
0.3473607081754348,0.32208610424624984,0
0.25938302743848535,0.26745891845755543,0
0.25758796416633883,0.21623540350583326,0
0.24074164567647438,0.279592435235055,0
0.27102819426601493,0.28248816507544217,0
0.26482120212532556,0.2861672565201527,0
0.3158816963346984,0.372928962875137,0
0.33627914349422094,0.3279415610843109,0
0.25704670385561473,0.2473448674631331,0
0.2376192649023982,0.24630825018216979,0
0.2201361838329966,0.22516549953924375,0
0.3450405964269292,0.3121762306034417,0
0.27209456467035675,0.3497364645087042,0
0.22716578369397938,0.2616013746987727,0
0.36171049849098014,0.26534395486036966,0
0.4743249360404843,0.3508146229439686,0
0.35668526161161984,0.30281339976217064,0
0.40614598427515347,0.2994073043438735,0
0.37546269789046055,0.21810970580753491,0
0.3734920513107698,0.31165194657259265,0
0.4313695744916747,0.23131873808553427,0
0.377793564220927,0.22113455781667482,0
0.41247920523412174,0.26055700027748757,0
0.421905987549773,0.24866595494578914,0
0.3790357651269414,0.26693561840137214,0
0.46856777296563573,0.20602653339677865,0
0.41664772803831907,0.32607644244880873,0
0.39394174826198997,0.334579953853647,0
0.4647895780461291,0.18088852742318534,0
0.3991761373058478,0.3272385534159541,0
0.4515430199817045,0.23784924364394572,0
0.4556100404635495,0.3212844639865668,0
0.516189049802752,0.2750733745065072,0
0.49135239157232774,0.27999448934627835,0
0.4719829656810272,0.26936084067356797,0
0.5196318098104741,0.33928219535870374,0
0.5536541478341817,0.2167563465231785,0
0.5173244270670317,0.3091877760885808,0
0.49513034652716176,0.3339222793987084,0
0.43408719203597124,0.3147327871836519,0
0.45137594045995943,0.3952107408752027,0
0.49420821356433653,0.2525884690251973,0
0.48371576853066156,0.3269610602935093,0
0.5094477738783826,0.27385129939916225,0
0.5261157786467628,0.34088614698626724,0
0.5541358257787589,0.2788914053849657,0
0.528374123480264,0.25994207808031117,0
0.5603510212436368,0.34469948936941663,0
0.5432546000171149,0.2548777942272892,0
0.4451396436851236,0.20887961523560833,0
0.5007045644324047,0.2537335710243452,0
0.5441007328910249,0.3105875745148637,0
0.4943287379019904,0.34929787676719215,0
0.5881920656329725,0.2853124199550637,0
0.6379883451812514,0.34572581655433976,0
0.6255163504268672,0.21196722912115934,0
0.5569051369797813,0.2577728139565444,0
0.6449834962346815,0.26556724334213494,0
0.5806207044461466,0.2743280398286145,0
0.5589427852179518,0.28432074261715073,0
0.5476057191059925,0.31472158307665105,0
0.5654995889130847,0.25799570530091737,0
0.5634293717587898,0.28724749355949863,0
0.5934415778417474,0.2780999266980403,0
0.5948989606570457,0.23412158802208585,0
0.5888385548625668,0.32479276076497204,0
0.6122152388551212,0.2733531307265884,0
0.6514484222398602,0.27234209097369244,0
0.6408069429329604,0.2822441040553178,0
0.5203624934647487,0.28449982025931503,0
0.46805422817661535,0.2591613962756797,0
0.6434736508382627,0.34447190393200994,0
0.5292853388712462,0.22242214777569635,0
0.5871266720963981,0.24490768581475286,0
0.5404588418187937,0.42001438445182593,0
0.5093287683179446,0.2291766474935871,0
0.6268278644349121,0.21344849350996115,0
0.6379029902474869,0.3179200764979105,0
0.5711737394473092,0.17740025856155633,0
0.4703646828810526,0.2695525677540286,0
0.5723856425923379,0.38866752150887546,0
0.6189327121070423,0.20418949114978147,0
0.5249052403820269,0.18239807497291632,0
0.6073908937968622,0.20659725116436753,0
0.5966933991807313,0.3265343016820022,0
0.6255235490931429,0.33791517126634407,0
0.6015023683650954,0.25610690742052844,0
0.5456988076754298,0.3159569794719078,0
0.6528745299251763,0.3513691376498544,0
0.5836782688205483,0.37128370399814664,0
0.5886637334830983,0.2696596312200634,0
0.5416555543121322,0.16696282139795693,0
0.5643109993306095,0.24105247316337242,0
0.5402577230715859,0.2608162215394944,0
0.5737403397080616,0.2692695034597382,0
0.6657303677281353,0.2728834852406222,0
0.5091752148511737,0.33828119718999217,0
0.4945860978364899,0.3461179006302383,0
0.6461857173879644,0.2738728086020205,0
0.559393787852427,0.33744074710325106,0
0.5335094723833889,0.30045958363461506,0
0.6159325071872703,0.28586182594858967,0
0.5305023735508457,0.3280237471633598,0
0.6488019456615739,0.2863691537221579,0
0.5879892412507514,0.38570712216755065,0
0.5261628186055034,0.2109560169753351,0
0.6547639986842467,0.2571780423628626,0
0.5128286310983313,0.2766706544721665,0
0.5763113861370255,0.305029245845164,0
0.5501408268518774,0.3465146476798194,0
0.5961110994527964,0.2819567069652576,0
0.6048266333706116,0.21212516485415556,0
0.5239584929624265,0.3254223541546166,0
0.48017577667193495,0.3211046096413651,0
0.5362158610344366,0.18632375036769705,0
0.4745853212267816,0.33328648865552785,0
0.6042786197149133,0.20402961580745338,0
0.5054596292952988,0.25036416446876564,0
0.4752769603985007,0.23851628499812924,0
0.49757495614600467,0.32417997826076905,0
0.4156714403159565,0.2896182640596794,0
0.42902398651371576,0.2195572173156693,0
0.5320936708423261,0.32790007750373834,0
0.43358916022855887,0.21226650016185095,0
0.4083431182972795,0.30052249288421934,0
0.4816712997673929,0.2433762818984948,0
0.5081703968122356,0.2658529732389471,0
0.478777268088896,0.30941037676979277,0
0.48647566440009155,0.31032932132325053,0
0.392577867767838,0.35116531705047255,0
0.35297351852989745,0.2802641903915024,0
0.49268069704477424,0.2997594305256426,0
0.39493498526395965,0.26261003325965976,0
0.3918887782019448,0.2936564055134163,0
0.46410958714794226,0.3065912257851025,0
0.41869036184962943,0.2797614430143586,0
0.40676331326251447,0.19454942318485308,0
0.4852217590257588,0.30137050420842315,0
0.33771269298581275,0.30308504526205177,0
0.4091134305008669,0.25090830957928184,0
0.3583223872086169,0.22075764359545413,0
0.361570788226148,0.3588309649266786,0
0.41715484294742183,0.30966929494860085,0
0.3586359463976842,0.27370297986019576,0
0.3525958923249457,0.2283653992513074,0
0.3716692983251176,0.24418631399001492,0
0.2920867886860156,0.3504665872527943,0
0.26059383989278795,0.29228017645928545,0
0.24246493588423745,0.25792773806824837,0
0.1884715981635932,0.31100156498191694,0
0.38161857664112664,0.24485720605076844,0
0.21560317041825955,0.360679278939504,0
0.2515946821455373,0.3533371661727218,0
0.2406507230343789,0.26242844787014724,0
0.2616378553221156,0.2543836510811435,0
0.2787744919450943,0.154970515500473,0
0.27267727863492264,0.2118581488599191,0
0.19211346304377194,0.21902371069200016,0
0.2044746456229662,0.29281672849165774,0
0.2184747099400521,0.26980553822262093,0
0.18337965216520308,0.21891046107632733,0
0.2676054390561543,0.272179045326262,0
0.20316826623954776,0.31156411683425783,0
0.20670413357323053,0.31274923895007023,0
0.194406370359999,0.1914337694137473,0
0.21120137812686854,0.2800641214349003,0
0.1528094441561857,0.21737026861291178,0
0.07011474729940584,0.33168375432090647,0
0.14610802057344352,0.32586465228396816,0
0.0846943656856155,0.2418159821524708,0
0.08194328859293706,0.24847509535107423,0
0.12877958272237117,0.2637740149485793,0
0.1524401687507831,0.1742577097393282,0
0.08263363433895184,0.3037558001503245,0
0.08803719070653682,0.3233751761636896,0
0.1487152576781181,0.33558616961148957,0
0.06663667088650546,0.23221696658736946,0
0.17566524877481676,0.256241292075401,0
0.06482828760654119,0.2119311885883423,0
-0.060521935492024594,0.23710293531798587,0
0.05614042121116171,0.22827837569168807,0
0.028484194731254936,0.3372361714398218,0
0.06486470421105474,0.2525844070623304,0
0.0249868393142385,0.2937662957395311,0
-0.02464234942568952,0.2685793533116107,0
-0.08797775313313366,0.22420427220646075,0
-0.04625120720086819,0.2793225263509198,0
-0.08735512618641386,0.3177527261050821,0
-0.08287413727537934,0.22746960188713525,0
-0.03342565641127801,0.3283732230532723,0
0.011648335045430572,0.24549154944521903,0
-0.061089283320795607,0.2638884112178623,0
-0.14957459677873908,0.31463177567440714,0
-0.07648747066393437,0.25498582366533085,0
-0.047800733627221204,0.290096386495499,0
-0.14701167260877118,0.2725431140917016,0
-0.13208709834039803,0.2948060678686976,0
-0.1334870197266417,0.1693607242597323,0
-0.18227100156623127,0.19697360077790355,0
-0.11938418475759555,0.31931605384305006,0
-0.16658320300382948,0.34043678582556114,0
-0.14826024344034222,0.24311339236893303,0
-0.222274046186714,0.27649632193935286,0
-0.20839445499012516,0.30349371419542515,0
-0.1589821444000897,0.32347864363564577,0
-0.22227816012967452,0.18749391197156856,0
-0.12577727648515527,0.24463577520859267,0
-0.240547990047301,0.27236883056741823,0
-0.21772248128371868,0.32421482142411495,0
-0.19066562916829588,0.41403934775078766,0
-0.31649793013413685,0.2777775492266275,0
-0.34184869177556193,0.2188889744643145,0
-0.3382619376944846,0.3094112634319793,0
-0.2069611919555382,0.35540766105135035,0
-0.3057331387818939,0.2948185896256904,0
-0.1582168295683843,0.24414546832140122,0
-0.3222606473512999,0.33743760465551725,0
-0.2926752850318307,0.3227752005088385,0
-0.23258325776414523,0.23835388937653604,0
-0.21709956745696568,0.30878922446543483,0
-0.2219722856467759,0.3396412339740619,0
-0.2721984629987728,0.3489324697214634,0
-0.2889072938393487,0.2865755308304464,0
-0.3179003491508373,0.27205401928935374,0
-0.3159458630909569,0.3513816947047833,1
-0.3896796977233496,0.2295699904540764,1
-0.4102044750803154,0.31206699215157135,1
-0.376553364791157,0.2216967082397001,1
-0.39189836319222277,0.3435268652233022,1
-0.41296781041372627,0.2774157878321645,1
-0.36231552363370034,0.3538072373974965,1
-0.3561077824544031,0.3150087254352999,1
-0.40609897145240426,0.22933708811682751,1
-0.34319569869614636,0.36178949822618667,1
-0.4806146688691566,0.36818038694611144,1
-0.4395748508882584,0.3347924602570862,1
-0.47199686589791917,0.25265875437771496,1
-0.5356472349262906,0.27549746191405594,1
-0.4525184724809058,0.2981295325046148,1
-0.46043384817456007,0.25573266367015574,1
-0.3845326643527216,0.3755955242622881,1
-0.434418557493267,0.2982545312278302,1
-0.5228164756591264,0.15593081728856092,1
-0.3844432165443946,0.30812602228414027,1
-0.4215283277861781,0.27381037380786405,1
-0.45879751665094015,0.28753192784520787,1
-0.5044380068397092,0.27290729936424574,1
-0.54618498911558,0.33175060048626553,1
-0.5218092567906725,0.34744268058600075,1
-0.4536329088329723,0.3056709617736649,1
-0.4185968693133337,0.27461275630622467,1
-0.44030319407836815,0.2895714674250746,1
-0.5464293132202898,0.29267832049681497,1
-0.5823704426364776,0.25163684967709227,1
-0.5236282431264303,0.3207647961012963,1
-0.6232567896055932,0.31488049186815836,1
-0.5227170359871149,0.3689604496663692,1
-0.5501735667283327,0.35476588869435977,1
-0.5698898022925424,0.25777466580283,1
-0.6299933312260269,0.3331333424101852,1
-0.5281231991696802,0.24463076653241383,1
-0.5838572926576443,0.32703505273658035,1
-0.6190103804046608,0.266467749753933,1
-0.7072924300586152,0.24119581052555966,1
-0.5680916183214445,0.3064207508316096,1
-0.48101092904640746,0.1587501392914328,1
-0.4893386046642333,0.20498972898127893,1
-0.597904223474575,0.2837239255152266,1
-0.6076770453208052,0.29678062003808336,1
-0.5565133749799417,0.2742526052008323,1
-0.6321250763553455,0.21380674077526224,1
-0.5692374844676867,0.2519439756066174,1
-0.5480114164999913,0.3124590460778129,1
-0.5268237437686472,0.32204768024976177,1
-0.5948992849395833,0.2922074478409471,1
-0.6016622548490334,0.3509203047749941,1
-0.6368301319631191,0.3130084788985068,1
-0.6355925742694927,0.30582585703003495,1
-0.606754874041609,0.27923354905976516,1
-0.5781095769526101,0.22317535587235382,1
-0.5517098556400175,0.2879717262155762,1
-0.6383233736655243,0.34904371869861445,1
-0.5241692650089381,0.3277632039754964,1
-0.6128629235579914,0.3636591780383046,1
-0.6007418265607636,0.2784744615547993,1
-0.6372643490047895,0.3609837254728623,1
-0.7212096137417632,0.2840735364271514,1
-0.5557526777214813,0.3673780138804451,1
-0.5629336203298775,0.2927659343822447,1
-0.6135266222683733,0.3292803524469652,1
-0.5956587711489642,0.3677344139746447,1
-0.5726231449003157,0.28436742633249207,1
-0.6758230673881307,0.30501826914116154,1
-0.6232881119249499,0.3586020030266684,1
-0.556126178048198,0.28756868557225057,1
-0.657422274204678,0.22823424164584616,1
-0.5787630119211624,0.4014892205028002,1
-0.6598681069064475,0.27091065655909835,1
-0.5671809472675543,0.3023966943252328,1
-0.5906136213288613,0.35231923725331254,1
-0.667783290044907,0.26415422059659655,1
-0.5268513453443772,0.2442455321244506,1
-0.6197464084553626,0.30738580462669923,1
-0.6213253419709647,0.20510513189473856,1
-0.5684480261160717,0.2804236599493626,1
-0.5185767911681965,0.3571309090109293,1
-0.6242008904423894,0.2814413929563013,1
-0.5675965072413397,0.21782645264067269,1
-0.5463805552114561,0.3747679096125611,1
-0.5301778110123002,0.3002959315022197,1
-0.5528942351952912,0.3667366416952485,1
-0.576823145945341,0.2822372353005397,1
-0.5964796635838867,0.25129846072742423,1
-0.5472950814675088,0.3088181178271209,1
-0.6015858695008798,0.28462972750035237,1
-0.6902984308212287,0.23659102291959597,1
-0.5185311012533081,0.3690283207609391,1
-0.49116761206101944,0.264485608679265,1
-0.650394225118276,0.20364581258658684,1
-0.5784963108624288,0.36212744652663237,1
-0.49269412195335577,0.27056425504053505,1
-0.41629999934026174,0.2654479732027855,1
-0.5135399221625178,0.2076298004844685,1
-0.5462675315454322,0.3830062661682172,1
-0.5141839976417668,0.2315451744802838,1
-0.4313522582288739,0.29900168987845116,1
-0.5273374287067049,0.34177024397259115,1
-0.529829347957933,0.3172850864981244,1
-0.5087260148839228,0.2932765362507605,1
-0.5268641249252166,0.21123597093839974,1
-0.4675640254282717,0.25589303406680686,1
-0.38685570718637563,0.3058293047596976,1
-0.44622127320285365,0.2571405963606222,1
-0.46917333650438564,0.3067272848623109,1
-0.46522279102462777,0.33070649430553006,1
-0.5227658233125226,0.3448044801571785,1
-0.3943237092333437,0.23543037997893973,1
-0.4361442268722245,0.40663166262092215,1
-0.43495120184408653,0.3352333391020814,1
-0.2598497759898809,0.2968336761933222,1
-0.3980500271594919,0.3514562250330079,1
-0.44396579586840346,0.415309796481575,1
-0.420990250533516,0.22516341483113333,1
-0.33545529420948134,0.2858962997618096,1
-0.38032989537009115,0.17829786089511132,1
-0.45093534434789917,0.30691203252357946,1
-0.326001807545998,0.3156091799898358,1
-0.3982276523160822,0.29544137412384125,1
-0.26392976277668523,0.26473281334846416,1
-0.2962851053755346,0.19504377809136392,1
-0.3652667762892901,0.3162562000737691,1
-0.2713850324089265,0.3704112521013474,1
-0.3245019382202496,0.26814861712131,1
-0.2776403029786279,0.31976254836153933,1
-0.2883537610388578,0.21941234824178005,1
-0.3471485410201025,0.32074022909980876,1
-0.3291791626449524,0.2782704730303507,1
-0.2376070302679414,0.25987870238983835,1
-0.29788147156681144,0.26004142986157797,1
-0.2932988069324731,0.2784390448231345,1
-0.31278406238760825,0.3173013017118122,1
-0.23569924061087535,0.23263148786981003,1
-0.14554577291392648,0.27844389335359376,1
-0.293784921076989,0.2962860830344295,1
-0.23087887037734928,0.2434677227101944,1
-0.15310758694201304,0.38831295602293875,1
-0.21927856373875518,0.2558649339385213,1
-0.18420680767339837,0.2651278742623143,1
-0.2514269280734295,0.2497443344552644,1
-0.1683286395845894,0.38864374830569565,1
-0.1904947870627205,0.3264250173811643,1
-0.12320344779351955,0.2520101676414086,1
-0.10443378034420456,0.35421135789898966,1
-0.025600773854810105,0.30899472667283556,1
-0.11733789260171024,0.31188247501636723,1
-0.12123704562331289,0.28185595552557,1
-0.11898367162878806,0.26166902861774444,1
-0.13750794896721052,0.3160881449207237,1
-0.09404492609513235,0.27200549047061456,1
-0.11683342919996628,0.39015764545154974,1
-0.08471133269078138,0.2859153207130398,1
-0.01830434110635054,0.3762477266203428,1
-0.12554203210878473,0.29393395754010593,1
-0.009234551682684541,0.3145141986834518,1
0.008628763544292407,0.3412778123162687,1
-0.054115908125204865,0.26816747123697565,1
-0.1452797511899679,0.3429523672245297,1
-0.060543715705545544,0.1644227672229395,1
0.043738360054227814,0.2638604953333019,1
-0.013208718848157159,0.2537168436297461,1
-0.05298163116086511,0.23730469538061175,1
-0.019205783215456178,0.2892922660976528,1
0.05711207417063975,0.31938751841308555,1
0.05146243057691907,0.38529303193136655,1
0.021218338346800196,0.31226388186882215,1
0.023855369413463157,0.2669953827665249,1
0.0316307302711048,0.31879088990486104,1
0.014108524880961308,0.30661436475854575,1
0.14999451391922125,0.34726290041520447,1
0.06209065369284261,0.33936693916738,1
0.14802776026297654,0.3521039367192361,1
0.1721789642866387,0.2557774777175423,1
0.15495017001802552,0.2680526322364016,1
0.09235117937059138,0.2732706840485044,1
0.14299035185476497,0.28505684733699377,1
0.13043778364100564,0.3142826974146947,1
0.09527624004832311,0.33669890754401044,1
0.16546111381986137,0.2984442653892391,1
0.09903902664105327,0.3018664514374321,1
0.22608691191839903,0.3082855392948092,1
0.152146081948153,0.27538497039059245,1
0.1940690387629811,0.2549706351674621,1
0.2067676994339131,0.2635283651864749,1
0.18820649320440025,0.2666028041505673,1
0.23898910952370714,0.3250775567202007,1
0.1943642214973527,0.26633472415723347,1
0.2700796380381717,0.28964995619031536,1
0.16756962987497087,0.32492188443462866,1
0.24948800512040592,0.3276948068875467,1
0.34836057168819856,0.2477437014605118,1
0.2095854588198352,0.3516333238938963,1
0.2338436249577745,0.35820787254138897,1
0.301494210350326,0.2954078872150872,1
0.29278311198216683,0.260768548596358,1
0.30927617245819744,0.36157493823812575,1
0.3240783018461975,0.2947377400204516,1
0.33916113858686453,0.1911515307130246,1
0.3706462432976685,0.2322163648513833,1
0.34331667646263747,0.28979197083179403,1
0.318353916140101,0.24416833157858844,1
0.3715613751932901,0.28170928756339697,1
0.44036580441467815,0.30406029878179847,1
0.34610047191693705,0.3756132303017564,1
0.3112859052251847,0.2880378162910311,1
0.42256471868259987,0.35624761408345895,1
0.3683064078273707,0.37411854420906,1
0.2727216170912949,0.37445603157722573,1
0.4306690550601705,0.3170382897813008,1
0.3683861077773209,0.20469611472247418,1
0.39739050860563035,0.3259618273870166,1
0.4251894158287433,0.3554005905099009,1
0.42469566276101195,0.2989872528498535,1
0.45712910509559496,0.3903298136277873,1
0.4062721117584046,0.3461523101997982,1
0.4599942632324509,0.33163431298646495,1
0.42755537802716637,0.3575996916915181,1
0.48356676111315755,0.3200091606966706,1
0.4833865368420845,0.17876015516625954,1
0.41173519046471974,0.2785037445649094,1
0.5185908920189116,0.36337910550322083,1
0.4431726564071147,0.2632011491383139,1
0.515945850957007,0.2924671028837822,1
0.4993712814588094,0.25145892445287604,1
0.5782706337866387,0.39295688191051853,1
0.48043204633671904,0.38789538702373133,1
0.4792715696144017,0.2596873313981946,1
0.5007854940934812,0.31130568817708576,1
0.4915024094675302,0.2699760977718296,1
0.5514481613978125,0.33480804411400145,1
0.4353088574755337,0.32960497802694944,1
0.46799617934366683,0.34476611474789676,1
0.4717276210429161,0.3208367705550283,1
0.5769511585132971,0.45107117049145784,1
0.6191640220368023,0.252964683923898,1
0.5324870748001194,0.21889071645500968,1
0.5332223124534111,0.2848263861441628,1
0.5489966507870668,0.226141494903623,1
0.6072945115089547,0.22997780668373718,1
0.5064145599692073,0.25459519947653897,1
0.5681565379132851,0.2586114989172564,1
0.6083273080111629,0.25705005109373524,1
0.5878241810466112,0.3307519157159093,1
0.5753225792802336,0.27959152714177243,1
0.6188411095657687,0.2959852634548157,1
0.43644310735573655,0.3497326429258869,1
0.6081843750602465,0.26676488996416936,1
0.544142071023121,0.29191373327040504,1
0.4877382341768406,0.32348903951268737,1
0.6071222591578037,0.20818266217943102,1
0.6524050114768407,0.18607578876531344,1
0.5788768270480273,0.3226869426551292,1
0.6352869010787734,0.33004180224598845,1
0.6700173291021668,0.4087121069626646,1
0.6567753024868268,0.313465856015785,1
0.6745195210783335,0.3466081100877497,1
0.6309845958239462,0.29590750404794675,1
0.59887173305759,0.37060250930890026,1
0.5160882155966479,0.3891640023195231,1
0.5848342149514779,0.19966153132816508,1
0.555790004548337,0.3266019971154314,1
0.707178441537936,0.4127605327431162,1
0.5903798083290505,0.32014291920211546,1
0.6057408310403399,0.38862986840569125,1
0.6274249572467114,0.2747006247699772,1
0.6021644530575352,0.3046188695406641,1
0.6847340392040631,0.3079574913706796,1
0.5687096903356628,0.19546171428571218,1
0.6092967489151894,0.24799238886354116,1
0.5620306738260495,0.2516175382892524,1
0.5326046074963202,0.34762460816247853,1
0.5673326362145349,0.3501889715474554,1
0.5952485921099069,0.32284315040097983,1
0.5746788321244762,0.34790648511083894,1
0.5604307935144272,0.2985538816343654,1
0.5235085046857529,0.3669179477498317,1
0.5883065500291296,0.3073207984068586,1
0.5157284861361364,0.3098345906489934,1
0.6273355451999464,0.29372176861693544,1
0.5916889140367461,0.3412839361642779,1
0.5127898696811448,0.28606148345421134,1
0.5681742800546694,0.3560030051471609,1
0.5438614362746403,0.2506339912538576,1
0.5951302307242666,0.2523556475556487,1
0.6437645248536308,0.3417328100507841,1
0.4804226777883728,0.30299427356770875,1
0.577241287829605,0.28478692549160345,1
0.5606620228060932,0.3520443949254333,1
0.5992849830305772,0.27723844959975663,1
0.5732984363834179,0.29765146959144284,1
0.5218327737912374,0.37768294181241974,1
0.5401439182635195,0.43473867360179475,1
0.5128341947058105,0.3864614788271791,1
0.6028490021509585,0.2937952914693676,1
0.5464024864489303,0.3694967375676872,1
0.6365606425721926,0.2605739629324303,1
0.5345090899137842,0.2627364725871616,1
0.498040533227309,0.1906188356944471,1
0.45357253997328156,0.4418450504229921,1
0.43477826690507293,0.26506265987666217,1
0.44128603117265647,0.3019950353455136,1
0.5292883355424034,0.26286545923885285,1
0.5366900633933646,0.3431999507541746,1
0.4273997851473075,0.289720017304201,1
0.5463015334091184,0.24332086782082102,1
0.47237276888760504,0.33070485255417204,1
0.4987287249726007,0.23699523510675805,1
0.5667515763420673,0.2668714620838954,1
0.5256233928808287,0.20345730462076636,1
0.46188640755756566,0.23766386674459053,1
0.42517671623879955,0.3178482428428953,1
0.356462088272155,0.21075499445412563,1
0.4223061593668778,0.23498452213058654,1
0.44181403344219755,0.30898337455743247,1
0.39701538276203246,0.2819814875618207,1
0.433713782209005,0.40882367616683923,1
0.4379213409892799,0.40097668367249306,1
0.41653931877155803,0.265945745236117,1
0.3888880469563195,0.33725876129624927,1
0.423331109355245,0.3469260202224483,1
0.4304112259337453,0.279647961479656,1
0.34711717300576783,0.23480483955836645,1
0.4654153139269807,0.30902700592027427,1
0.3830810307251935,0.3010596566473721,1
0.3820063953569847,0.28797372754194717,1
0.40944142692496704,0.3319378078011028,1
0.3785732184906178,0.2723454960449991,1
0.40736748368758496,0.2523421110187224,1
0.3667832724890058,0.3154561489175716,1
0.314441436794119,0.3293605170309243,1
0.35569622726910377,0.25128977720987833,1
0.27291568329246507,0.35658656695683555,1
0.3279358292169649,0.22171799152087804,1
0.3131788298205889,0.28139638747630025,1
0.2966953512931901,0.2974616456046024,1
0.2928653232849346,0.2786108987842869,1
0.19732266758679046,0.28222907274172426,1
0.2560355036806506,0.40409583253709,1
0.2801061385087383,0.2680579159721399,1
0.27538619425937594,0.432723218550081,1
0.20787827154552,0.3325784834154384,1
0.31435709702963466,0.31538491329688584,1
0.19951552458665653,0.33465418610307,1
0.2829944507977459,0.4373985678986848,1
0.24752528311443592,0.2612825422419153,1
0.18544672510196455,0.2550013084940687,1
0.2980666246739053,0.2733389066146926,1
0.14111461560155852,0.3127493857939172,1
0.2382038653641781,0.22491368420746097,1
0.23368123947098987,0.3123792144164205,1
0.14148530238196103,0.3959996211235742,1
0.23596395398234438,0.3189526459865299,1
0.14512489982027363,0.2968080155089277,1
0.16331258617227748,0.28059427802591064,1
0.15311080870801932,0.3564878976900707,1
0.12456422268052222,0.27033068580299063,1
0.1629751525900078,0.4040021324972559,1
0.1532364023944254,0.4084103358554118,1
0.017236761795758185,0.3746399004051838,1
0.16095795762434323,0.31128661807066266,1
0.0036721517253385655,0.3634553748889734,1
0.12946012226123638,0.36672232159066215,1
0.12518642421091244,0.27174282192872556,1
0.005305538758215267,0.28577466382726174,1
0.03030222307338932,0.24604506075233257,1
-0.01346478462236321,0.33267569140560066,1
0.022042395203985373,0.3456138506641428,1
0.008347271632433002,0.24484618660063506,1
0.05368714910317403,0.28964253525529127,1
0.07117135151521096,0.24509979661943226,1
0.06639060984754816,0.2675825139887083,1
-0.040550704942305435,0.34013336951461565,1
-0.031949289817486404,0.2759684251717872,1
-0.11470111007263974,0.2976612427064867,1
-0.07985676326321225,0.23139696611313632,1
-0.00034573781666032144,0.3221720749991358,1
0.023176815158256328,0.3106689105230706,1
-0.12832067264779623,0.2764946260160454,1
-0.10521219398646167,0.30355188563598035,1
-0.08587782569210008,0.3220773565476767,1
-0.07949880137037137,0.27237921707943774,1
-0.14291508561374322,0.2393695093272165,1
-0.09013660556593439,0.4035213701640467,1
-0.14391104550621558,0.2816390252965928,1
-0.12979376434068132,0.30852466737516243,1
-0.1105796496308841,0.36396467128792304,1
-0.14636409135386808,0.4899354559178321,1
-0.17726247388773614,0.2513183860472651,1
-0.16964628349364008,0.3360940812304343,1
-0.17726921037171392,0.278285118281804,1
-0.19999756245230782,0.2867832293200743,1
-0.2030414752701996,0.2777721555009708,1
-0.11873073001352162,0.2575600201636815,1
-0.1791333401956834,0.36183821246687814,1
-0.23042242290953285,0.24023765820609988,1
-0.1892207249896373,0.3613631828865057,1
-0.2491284862916937,0.3168329633649814,1
-0.1820974710798942,0.3352645772107851,1
-0.23053301728449094,0.2908934099708025,1
-0.2625850114814115,0.2959026558599267,1
-0.24298032238701484,0.328701059831281,1
-0.35199587455536885,0.2561803449550238,1
-0.3378141331507259,0.29654336685704874,1
-0.3491316720088054,0.3215222248861933,1
-0.2901820874819287,0.27003447205296577,1
-0.21852967561985343,0.2091310125536349,1
-0.20134718418255107,0.3816492660613175,1
-0.2886952203148994,0.2804160109320295,1
-0.30316820519639814,0.3729717633502959,1
-0.4258013071254856,0.3683025886642335,1
-0.37034372503624224,0.25062299927109466,1
-0.38998276304841617,0.2605624348156776,1
-0.3889397419156085,0.44306815656950455,1
-0.37352692414633576,0.452649317700478,1
-0.3958635750179538,0.31358710694011616,1
-0.47827866720210543,0.32809169992978926,1
-0.3488865072578795,0.28374073646396286,1
-0.44679964238622144,0.33696070432373976,1
-0.3879911813984045,0.32954398557999964,1
-0.302949442250132,0.21384540440360444,1
-0.45923034993612444,0.24944531529537164,1
-0.5462890314989626,0.31663775401585403,1
-0.4404929101318595,0.25908976685059576,1
-0.37746580964378607,0.31233926738244894,1
-0.34081912178120116,0.312030100658883,1
-0.5063368725008464,0.2767054685078269,1
-0.4260461322385297,0.40854144195598663,1
-0.4800657493669647,0.32831721601973274,1
-0.467912863377887,0.3155199795744607,1
-0.33610826059389454,0.36001141129606107,1
-0.5490773908736817,0.3401536543122963,1
-0.46673752743025704,0.3885114012098979,1
-0.46142642734940953,0.293250285533973,1
-0.43579805915415937,0.294821511725755,1
-0.4903530209590064,0.25130780933496366,1
-0.48490179375512926,0.29497424878831036,1
-0.524825080792366,0.36472179137445415,1
-0.496609703259782,0.38154267727483904,1
-0.5319330309695572,0.36461857906846623,1
-0.4882850877035035,0.22695373933906154,1
-0.5423163179247684,0.37088060530197053,1
-0.5093337369502589,0.22485742550773075,1
-0.5338846992283102,0.3617492348798521,1
-0.4802307313922989,0.29851415434758244,1
-0.5430925636494415,0.35209005837522844,1
-0.633041175000488,0.2504009872862079,1
-0.4850363116554386,0.375641798318644,1
-0.5970371463871764,0.2438946913804927,1
-0.5879314794172271,0.28378069514547877,1
-0.5883925503035654,0.2673587213020864,1
-0.49312683025619664,0.22960922205181364,1
-0.6717438842516876,0.3221098550747625,1
-0.41105566703503715,0.40774794458958763,1
-0.5179939763955728,0.45084876181614053,1
-0.5623587480671421,0.32242130205685293,1
-0.5788588048890784,0.3734575884583171,1
-0.564298756404714,0.32928826860376836,1
-0.5548510780802434,0.3426877084481526,1
-0.5508450134135164,0.3006961281557805,1
-0.5573915163416824,0.32761741898567304,1
-0.582625536262474,0.3447975199472648,1
-0.5987707660916481,0.2890606102755273,1
-0.5981328187744026,0.31416889372709494,1
-0.60184553406067,0.31518211477427044,1
-0.5368078883192235,0.35948379859307156,1
-0.5650798202088043,0.26492203614756177,1
-0.7429030543419433,0.31570654630096373,1
-0.5640789970562683,0.41394394218638164,1
-0.5879918611074422,0.3766066883654441,1
-0.5993827708985214,0.38592264518298297,1
-0.618455781752758,0.3197452967498499,1
-0.543270480395948,0.3346335949276498,1
-0.5524096803452265,0.3687555370808954,1
-0.6386033331640177,0.3967165172246962,1
-0.5796438015474473,0.22118360710640578,1
-0.6484797301618017,0.2530516994004583,1
-0.6686418132450793,0.3843559818254835,1
-0.6306243655290632,0.30509932096931136,1
-0.5556601024119868,0.28541776129724816,1
-0.5504785836582141,0.25635576341277233,1
-0.5716995596948774,0.2913729896877475,1
-0.5601821486718068,0.24906537259616227,1
-0.5695754520915751,0.4237985624063778,1
-0.6262704352017011,0.3181820581731258,1
-0.5712770480117466,0.316466345686419,1
-0.5513946506007612,0.348827718535347,1
-0.5521079754802647,0.4176011552426844,1
-0.5286501142830732,0.36683831660948835,1
-0.5508200499669129,0.3732850179795354,1
-0.5666689332444949,0.2881216552470145,1
-0.5286070284015878,0.30483060454111477,1
-0.5811813791871561,0.3582355395634721,1
-0.6215579178384668,0.29347451571177774,1
-0.583095039611838,0.31964864919479796,1
-0.6095335407005856,0.3399021810198004,1
-0.6032638537377041,0.35928325891647894,1
-0.573817852726564,0.2311999686848506,1
-0.6031710047765118,0.3558813113002084,1
-0.5757779770590808,0.30851783791557535,1
-0.651763049234001,0.3556369383537812,1
-0.5429933194277583,0.35917064943070404,1
-0.5500474725096612,0.40077982987132094,1
-0.5872867795050036,0.3881167711988237,1
-0.5096703624845299,0.3878326839506788,1
-0.4918309976252952,0.39274762878087643,1
-0.6150418094169203,0.33519307406576226,1
-0.568632740232724,0.32229339117920747,1
-0.564665625304434,0.3643850029886827,1
-0.5687959662287543,0.3574082084038176,1
-0.4758006719557793,0.3054108609976539,1
-0.5223216530663688,0.3411653552773808,1
-0.5210954059084518,0.31922937350013814,1
-0.6031865683895165,0.27834756341876554,1
-0.4662319128486268,0.38562725791298635,1
-0.5548618114369275,0.3239241949730738,1
-0.4846862117137247,0.42365965773391234,1
-0.46848700861854914,0.24000964334137864,1
-0.40888621056629937,0.29350533021160247,1
-0.5368149544651044,0.3230362226907148,1
-0.6166971071967553,0.3783333477400174,1
-0.45077064363951147,0.3414977734910814,1
-0.36407454977758147,0.3371079545724103,1
-0.38618647941832895,0.2652811392380658,1
-0.43158257198067196,0.26385727100670003,1
-0.4604785355928386,0.3378895858850694,1
-0.38927262123084544,0.2536190651820567,1
-0.4719403528378435,0.2952904893609086,1
-0.39298316129946964,0.3969902553320684,1
-0.38497073383778874,0.27288818726633723,1
-0.35058361512233593,0.40233221100066685,1
-0.2588691667127584,0.3833212420968715,1
-0.3703991515931091,0.24361343697046245,1
-0.40854718987308547,0.2756258867306786,1
-0.3773696345669656,0.20801559866743097,1
-0.45745107052222705,0.2832349047671723,1
-0.39655534778217383,0.36074390872559936,1
-0.3750239214866182,0.301789749785637,1
-0.3734236717315012,0.3455843710825788,1
-0.3321819742325747,0.24648780499009365,1
-0.3734238820116337,0.3625632956356766,1
-0.26867892654046166,0.29496908351256435,1
-0.31707381072404484,0.3233930410255276,1
-0.30983075303669594,0.3182008438441301,1
-0.31797167056773834,0.25932715487156904,1
-0.2859599948790903,0.2653103763315946,1
-0.24454039415739723,0.37141432837115546,1
-0.3211625831044938,0.34303422479846946,1
-0.3026594657203483,0.3756470810034565,1
-0.2768261474585294,0.33943755270331155,1
-0.32076007849722094,0.330414184671047,1
-0.2861984524489285,0.23702413399964828,1
-0.2607598435159285,0.3098663420973286,1
-0.18488867950707302,0.32207547291760036,1
-0.20708740647810187,0.42116006085381674,1
-0.2020932166101526,0.3579125445475224,1
-0.16073687876443324,0.4004277840304654,1
-0.20161318796906322,0.3535616222421259,1
-0.16663987676832986,0.28817958760231605,1
-0.18270037880164636,0.329660971759683,1
-0.15560695851861125,0.3356759552678026,1
-0.18931037760216732,0.2769670064684573,1
-0.27337423496291524,0.30476542812974583,1
-0.14937381906414976,0.3137564592779338,1
-0.06271648545394685,0.40438581259244877,1
-0.07870670405186975,0.2201278066970444,1
-0.06788274256952145,0.384515766004796,1
-0.04545480067268576,0.2774450952234252,1
-0.09391277711698012,0.25574090961031404,1
-0.07954181929490238,0.38340198747811843,1
-0.11133180878425393,0.3610597964403148,1
-0.08727616538430115,0.38725084010005567,1
-0.0316910149267996,0.36462001436067554,1
0.006721812611166424,0.4276371790726673,1
-0.05142539583347251,0.3526411328354219,1
-0.05793310580219463,0.3169410841844402,1
-0.02635974687324002,0.3419712838590657,1
0.012717692756394169,0.4370584334126973,1
-0.08048794022501386,0.28597622273479373,1
-0.11405491479194606,0.29241057187363095,1
-0.01772354887833344,0.30961701227270516,1
-0.04218539704448052,0.2198958850667344,1
0.0024858569303728567,0.3320889574282788,1
0.029540148298248286,0.23093861381225067,1
0.023294640480974443,0.32795802665883345,1
0.1275978799280578,0.36862956082136544,1
0.08031667797738627,0.3015812619848116,1
0.08799354007671306,0.40934089052874745,1
0.11305396230001427,0.25252006405087996,1
0.033957091485927654,0.3851681551057965,1
0.15178880116166507,0.35942198584695134,1
0.10495675158509067,0.2399234826134714,1
0.15115601333381706,0.46132487198343297,1
0.07289937817883527,0.32265790475860845,1
0.05763578413607931,0.28203097992842563,1
0.18501890418463432,0.30561083329940686,1
0.1717128106714898,0.3150243036580245,1
0.11652288942315328,0.3197148734239107,1
0.12683867890925205,0.3312775054727924,1
0.2352511928134166,0.31131543323701166,1
0.12812576490077912,0.3579265185563648,1
0.2783042382960983,0.3069437734198483,1
0.1596691596414382,0.22963707119338755,1
0.24510283271132843,0.3189772142753295,1
0.20518685727512437,0.2081314183915481,1
0.26016128311283626,0.344253844607182,1
0.21112802057185706,0.2776603135508813,1
0.23847166777591278,0.3348533548132035,1
0.25687876452814534,0.39244909814604423,1
0.21288695568044358,0.27936792630881446,1
0.30814124142660776,0.3799281860002208,1
0.25348137104522556,0.30525590674270775,1
0.2756905789232639,0.41464513718269513,1
0.2453163164157984,0.3087877784219057,1
0.17476319768113918,0.2850807718088823,1
0.3011056881359951,0.3615273556063818,1
0.43899437398735824,0.30543595860783607,1
0.36522792183907693,0.28521298138496787,1
0.33259463426756664,0.3034534765586292,1
0.3278971791223334,0.3251751544870692,1
0.3495715015768654,0.39457449966086244,1
0.38313138322861867,0.23082111782804132,1
0.303981074604675,0.32873955005094174,1
0.4259015069678288,0.3588907088385233,1
0.41303398421778453,0.3373779698578115,1
0.420167879829037,0.39325881158229886,1
0.41308864353091296,0.32410829862509644,1
0.3989629694177811,0.31865800500612584,1
0.43835194435902014,0.35756206646849076,1
0.4409342711442431,0.3329712918677915,1
0.40018263740242366,0.308545176208601,1
0.3956506314059552,0.353932827104344,1
0.4357730541622463,0.2955592224665932,1
0.5143827941656436,0.2976867915288597,1
0.3811285857266118,0.3019059600439458,1
0.3757590353605429,0.3960191311429473,1
0.46332252949182956,0.16737486733774173,1
0.4634745376121348,0.348265638877575,1
0.47533804734898866,0.33025929985183944,1
0.4845032762254724,0.24456219818232283,1
0.466672714602354,0.34415207210342946,1
0.5577445117297233,0.35251334474060647,1
0.40851472218679613,0.3582677187193003,1
0.4523325124194981,0.19625436600158333,1
0.49367974710933865,0.3972252517489532,1
0.4216546881523376,0.2920789579243897,1
0.4998784432554569,0.363354192498691,1
0.5964859928145159,0.36613950619754704,1
0.5190813377111081,0.28531097488486856,1
0.534078743068873,0.36222883878581125,1
0.4639232745381522,0.3099911911250163,1
0.5003813897853595,0.22575700620612676,1
0.5165867500556562,0.38777297345182404,1
0.5234861412184224,0.29069364102702355,1
0.6073567151997851,0.28678122804333334,1
0.574938122508862,0.3094126197808005,1
0.4951352706125589,0.34323776145140644,1
0.5665627299748178,0.3268224166463324,1
0.582551821820234,0.35714929542519647,1
0.6179245762341894,0.2628314928658055,1
0.6430929497989213,0.29274665467310224,1
0.5163316819966937,0.32412613158096276,1
0.5294349899953286,0.42488036183237515,1
0.5098607866687322,0.32435538228115246,1
0.5636702125446124,0.3843671343873224,1
0.601189763308945,0.3320937916458572,1
0.6296077538526392,0.3060431133371634,1
0.578680665680069,0.31794983600572024,1
0.5685905260199237,0.32192508361239874,1
0.5941425048182546,0.3605883681642802,1
0.5466357323224935,0.39919665659747144,1
0.6945742366874423,0.34851014760536025,1
0.511284435719831,0.38994000116053246,1
0.6023401085781507,0.28240664234436086,1
0.6955840626650954,0.30997461578754415,1
0.5959091996345316,0.34455102652026276,1
0.5870972298714315,0.3465483947767893,1
0.5796211689070531,0.3129382579764764,1
0.5892321951685993,0.36743483608955735,1
0.6675164504739772,0.28445611565862594,1
0.48876694538106635,0.3332177619087126,1
0.6763813963840515,0.3654691207956618,1
0.5287251006888826,0.22792109849541897,1
0.5866671169523564,0.43732781461636017,1
0.5784777981473828,0.31714866700825667,1
0.6291714926285806,0.2301142775708423,1
0.519504990382845,0.3393309801858907,1
0.6220508646428229,0.33315847065810944,1
0.6995524870733794,0.32745159028322773,1
0.5294369691364323,0.3811658769105861,1
0.6062036987313402,0.3690385818380061,1
0.5626062595389477,0.34662015482024605,1
0.6158511943542136,0.35429413896878664,1
0.5942304373402705,0.32662844680195047,1
0.5597799582898951,0.4206809237382577,1
0.6146945368453964,0.2580065923607674,1
0.6788306639048207,0.33900898899185106,1
0.577246505510499,0.3353376488428957,1
0.6208245441269112,0.37281044958908677,1
0.5180849110287893,0.2900137474170127,1
0.5327060869677025,0.2450828231708313,1
0.6017955067316973,0.3401676160979683,1
0.6498967566370657,0.3464480019063893,1
0.5908564254858895,0.40692645977024205,1
0.5546772947317544,0.2689883989840057,1
0.5674194646822254,0.3903012016384965,1
0.5019301198880002,0.45099724350641707,1
0.5915434825471966,0.31379829293133765,1
0.6021738891105909,0.26819943833520077,1
0.5320652909415453,0.31245784299359386,1
0.5276540941879908,0.333566821683232,1
0.5608111287387071,0.36111597906740917,1
0.5219176956263181,0.30341686082756153,1
0.536559822499187,0.41080653602923145,1
0.6408425033968831,0.2773800055738617,1
0.5193731917284854,0.24620637571802528,1
0.50955457405391,0.3885621665434317,1
0.4907216057829712,0.2195556057711563,1
0.5558164133243794,0.323140180890231,1
0.5049357508717863,0.48929073779666965,1
0.4768015271593171,0.33286451569067116,1
0.5704927502502948,0.27748832280625574,1
0.5704503200551299,0.330716844154129,1
0.464377992083092,0.33110668991489245,1
0.39588870625326333,0.3417392383659255,1
0.5342966338222953,0.3668799024586511,1
0.4442846200727265,0.2818712069346837,1
0.5125336993755587,0.4182641801173108,1
0.36887593688258014,0.3462025035765025,1
0.5062833820726347,0.37034650368036226,1
0.3952622880526926,0.3026593433748904,1
0.48642276861926553,0.3984459322148497,1
0.44455955340560355,0.3213342169268203,1
0.390009299279655,0.3481244750445506,1
0.4111152543841696,0.287651557512919,1
0.4594456415126679,0.28452029205456864,1
0.42399038044385096,0.36883715069971956,1
0.44138700005925086,0.3123065558691066,1
0.5043653129353126,0.2918557550066575,1
0.3206158818552536,0.3024477542829253,1
0.4728825435949753,0.36961458697254834,1
0.39034448605867794,0.3032750523288973,1
0.3332046515747592,0.3289042108113701,1
0.3045593164566144,0.33559835690823364,1
0.3544657089416948,0.2390395370957643,1
0.40276817904065587,0.2614106731300038,1
0.34299102269120546,0.35184089986345835,1
0.4175295553225842,0.29823554934584584,1
0.26193856185416575,0.3879832749699021,1
0.3263423442657144,0.3835473966208089,1
0.25670219011136486,0.371225486728454,1
0.32980588704691655,0.4263156547787125,1
0.3482002039750626,0.33123261102832396,1
0.2749801644988126,0.36789118571307555,1
0.1579026421335557,0.3062870525904825,1
0.2900902823858386,0.4581856090661207,1
0.2939456151518582,0.434808808046886,1
0.28422733790642796,0.33628115915337503,1
0.31764556413365685,0.3550764609251456,1
0.19408942211458535,0.40377204140052675,1
0.2733822287136971,0.32851019819398164,1
0.2906716636332475,0.3030959818971022,1
0.1337392144226848,0.37968668498983205,1
0.2302228373557791,0.3399691717460719,1
0.18055417106981358,0.3452569439265519,1
0.19316313803595517,0.29445366629329106,1
0.20605433648408802,0.25034363803092,1
0.15569740550450667,0.34809437794544534,1
0.13762079094696195,0.3815953715286008,1
0.16442218508882164,0.3251169440024892,1
0.0996236218878345,0.4082887694366351,1
0.090930987923276,0.301331489190315,1
0.17039419855327168,0.2838520947151967,1
0.07015808828309628,0.3832858141060866,1
0.15205664447586018,0.33257771270072917,1
0.13298680197531426,0.3752657900374553,1
0.014658128211862811,0.2980792242698954,1
0.05813849535855711,0.40529208931624006,1
0.14276952926935982,0.4352932376033083,1
0.025034218093580696,0.335050200131879,1
0.041883862333243926,0.3995529344919125,1
0.07920389088082223,0.284302571953834,1
0.08625438049906467,0.3909485145465933,1
0.025481208575540967,0.3896112699178711,1
-0.0008527165723575189,0.3804793255017924,1
0.09109932435816608,0.3365893190511843,1
0.09787930728751744,0.18971503843499787,1
0.05082823209528762,0.30540114031689347,1
-0.0028981867362013105,0.30625170861767026,1
-0.056625173662184745,0.28869477460127696,1
-0.06677821370522607,0.3437796837340546,1
-0.008168648618434152,0.3167793732330401,1
-0.022405001981103994,0.2965569570232512,1
0.017734313131359196,0.2849075621015118,1
-0.028831907675273646,0.3021319322420419,1
-0.14550326612978,0.39404255411120015,1
-0.026730705681802622,0.3049763527897295,1
-0.13819190771960613,0.3123406822018411,1
-0.1164281455756146,0.36531274877474285,1
-0.09363815927490496,0.35515731721877664,1
-0.015259235871813062,0.3610801279571328,1
0.03158504683006244,0.18609483857094855,1
-0.10241481108314127,0.38946943822688757,1
-0.1507206795433275,0.4102660912500953,1
-0.12361324815492354,0.2859983746722246,1
-0.1146992418933987,0.2899528013059668,1
-0.1838226887215327,0.31611505615619545,1
-0.08669786479725747,0.30088753657467926,1
-0.1735838786020787,0.3499440932472403,1
-0.1687871419538126,0.24148149723436724,1
-0.16892090616666333,0.332971393152874,1
-0.18963460977256763,0.41588764556585683,1
-0.17721580310960344,0.292576799192111,1
-0.25842451961319135,0.4012192234670586,1
-0.2638242138272244,0.3568747313438197,1
-0.29921043845818845,0.2487044478373004,1
-0.23046571414602574,0.37099430532992417,1
-0.22167457354583914,0.33340449246187165,1
-0.24585409168780106,0.3165745167614278,1
-0.1930783153707898,0.3516557362349155,1
-0.2850799722374328,0.36319956785705537,1
-0.2592955357595085,0.3749074966798472,1
-0.3551835180827783,0.3985005599609168,1
-0.3277509342863253,0.360054725224835,1
-0.2813463815332491,0.2709262371489996,1
-0.28132357165641153,0.3160856807081586,1
-0.3460587784216963,0.4869803823565497,1
-0.3424467688239433,0.37611253061460553,1
-0.4221897825373424,0.45841235463849445,1
-0.3714980679634191,0.40977970571027933,1
-0.3163975141024481,0.352158117180508,1
-0.33934438365262715,0.3551983790941769,1
-0.3501755732579998,0.3383590356136792,1
-0.37973904644086875,0.253357818817597,1
-0.38880649427568614,0.34121042423573367,1
-0.4290191036324301,0.40090180124183283,1
-0.3678149363932749,0.31044608587606326,1
-0.388369400962495,0.3610857475726144,1
-0.3913856611776828,0.38312766191658426,1
-0.44876227149237613,0.29512409965870107,1
-0.5365054988166504,0.3681029904095421,1
-0.3802609875395814,0.2898325711052679,1
-0.46524178442125663,0.299679877297056,1
-0.49051960037186415,0.27646790545127375,1
-0.4186859958805885,0.29588575856742594,1
-0.4788365713900914,0.4119409776786197,1
-0.41201065003505777,0.2952543541866136,1
-0.4398229206059889,0.34741117859656323,1
-0.44205343091851074,0.3160047919623814,1
-0.5499800272771352,0.40015153850017665,1
-0.42642581287397774,0.40682636848091097,1
-0.47919046686435174,0.384531764760078,1
-0.5158348527991871,0.3566950053106689,1
-0.49520643175341816,0.3298953128158867,1
-0.5960781944047329,0.28191456645076957,1
-0.49160897566056166,0.4387447577188424,1
-0.5681688946839746,0.30364467477750534,1
-0.5888749964000616,0.37487065501917555,1
-0.6017820310101043,0.3947266283011039,1
-0.474332663238234,0.314044336827068,1
-0.565612703799161,0.3937690000405331,1
-0.46152409114968074,0.3801390458440782,1
-0.5689390589405168,0.4283865894486242,1
-0.6313320634800051,0.31858108636060084,1
-0.6054813701942079,0.2778152208203511,1
-0.49143051294337714,0.31689394591451175,1
-0.5644561005482931,0.35267112281585444,1
-0.5873890235829685,0.34519909404579113,1
-0.5551598302167119,0.3226765748802113,1
-0.5411295783181994,0.24694860874747715,1
-0.5132779431799436,0.3659926435051951,1
-0.4995226202259346,0.44114572965525023,1
-0.5926056037707297,0.3658010796096909,1
-0.6434584302766748,0.3731053056586169,1
-0.6002368857014821,0.3713308070160968,1
-0.5688253434880084,0.3626208872048622,1
-0.6321706981076393,0.38941186405654743,1
-0.6338508347481211,0.36265726177482643,1
-0.5706811289966958,0.3273147312352798,1
-0.5920466445504587,0.3032091562199064,1
-0.5895835543096511,0.3306199309587108,1
-0.6306230550291743,0.3588351005476783,1
-0.6055583798139077,0.32738448967139683,1
-0.641454923882934,0.35896558388651756,1
-0.5518028613370037,0.36526616841736737,1
-0.545484179742758,0.38502764529825606,1
-0.6903540411008134,0.40756843417909644,1
-0.6451821479014874,0.3473890686634908,1
-0.6740588293588063,0.2781598814845654,1
-0.6321230102450456,0.3263535169033894,1
-0.6040467555502761,0.3458718621170793,1
-0.6724737006344603,0.2519403079402953,1
-0.6460645254268118,0.4132219837566744,1
-0.6500130155558786,0.3509676653794741,1
-0.5891589452988288,0.3629764234853655,1
-0.5956258789844892,0.41224511688506504,1
-0.6346144744602955,0.3125216642540349,1
-0.588984899674256,0.37279091430775424,1
-0.6243222991428398,0.3386556236108564,1
-0.6095975977567133,0.3350044984175577,1
-0.5112332021904122,0.30565923438053516,1
-0.5266383880047624,0.427609026457481,1
-0.6572610888249517,0.3256138757717766,1
-0.5492812587565176,0.37942210212274075,1
-0.5485495153272206,0.25075853240675927,1
-0.6447499566331664,0.40356834026724586,1
-0.5444817503928135,0.39723948358301,1
-0.5064747041787425,0.34956064330242265,1
-0.6373165012511851,0.3334018264830617,1
-0.624750152525465,0.36480896207303676,1
-0.5255460048154854,0.45930850683877344,1
-0.5602772518530857,0.25676715085198515,1
-0.5435706016587613,0.38409036717826633,1
-0.551277427348424,0.2994681446942653,1
-0.5458052850784891,0.34411310198937434,1
-0.6285682756018949,0.3327750278528282,1
-0.5066554711733209,0.32381313291927405,1
-0.49719137670443336,0.3447658013589258,1
-0.5636635280291642,0.2886405125500733,1
-0.5507653384250197,0.3968681036227616,1
-0.6214195712844743,0.25576191825883376,1
-0.5153002165857593,0.37251733146258137,1
-0.5084357696280727,0.3292623251968362,1
-0.5360517130740564,0.2871028851355925,1
-0.4725067798008785,0.3558283103583004,1
-0.5410903194293375,0.2679215994954422,1
-0.4916988830034018,0.3478148569191484,1
-0.5663368429344737,0.2747453324449894,1
-0.5118384463870709,0.36901279405385917,1
-0.5145695982499823,0.2997913351588493,1
-0.48966246338435143,0.3235195129913031,1
-0.5143662278087142,0.36082669524232713,1
-0.49731272683151656,0.3075621322554577,1
-0.44417431966954385,0.34335104986655485,1
-0.5019420339174616,0.27061773679012774,1
-0.5549506057566538,0.37791305403457875,1
-0.3815525160983773,0.43467497613471,1
-0.39426227152315607,0.48609974125507005,1
-0.5221459738290095,0.3511077171952944,1
-0.4171412317781962,0.3860195289042322,1
-0.4707664064456159,0.25763805022139885,1
-0.42633298287100413,0.4218660621844532,1
-0.4185858327392905,0.38560078310777957,1
-0.438708557325786,0.32265269762641313,1
-0.4597704464339516,0.40876842189082574,1
-0.4486075365926915,0.3342455900465087,1
-0.4532942045680919,0.32412814673044843,1
-0.4423871484628443,0.37085616415495126,1
-0.3973752077830771,0.29398170489446124,1
-0.42293491620975304,0.3982906801083751,1
-0.34608686784848963,0.294469963294436,1
-0.2987832313496604,0.29482672640201935,1
-0.3950193851400012,0.3019049884751624,1
-0.346834419652359,0.38542449177378574,1
-0.32652668904480564,0.3166707338243947,1
-0.32053716835610707,0.28016972468442214,1
-0.3328875706878579,0.31734552590839116,1
-0.2920226753733986,0.34608741937355714,1
-0.29744093350074546,0.2887009257267627,1
-0.37575993937301305,0.34022550646066524,1
-0.2626710507201665,0.4534343906197622,1
-0.2539467088455762,0.3049013157264891,1
-0.3285900921402547,0.3318374794809336,1
-0.2805773646383812,0.32968775988202015,1
-0.24029201833957947,0.3270417815358628,1
-0.2768459360688736,0.37923697092524045,1
-0.20459252300496614,0.3956367934527883,1
-0.13185023559715614,0.3329919363550067,1
-0.2810887163276543,0.2865257556043693,1
-0.30253219639506645,0.4621316933288324,1
-0.20992647542522336,0.3437026393789537,1
-0.18062550867898067,0.4350457966840467,1
-0.21978388510360267,0.23631042306533057,1
-0.12706709466621288,0.4084198910101552,1
-0.25810454415878314,0.4446400586422001,1
-0.14792896059117905,0.3311065471788822,1
-0.20422703778386492,0.33755509478645884,1
-0.07928463952291925,0.36366536253510806,1
-0.056909712998385736,0.3210099990137438,1
-0.18611464680914394,0.33340620535775545,1
-0.16647239322221807,0.33217905925322244,1
-0.08719624227965245,0.31775878924387435,1
-0.1406836566591297,0.4106326654776215,1
-0.11472157282692691,0.3723037515848157,1
-0.10227989804244314,0.3618412735775595,1
-0.19060772837537762,0.3897984243193008,1
-0.0863691840593917,0.3362120943170221,1
-0.11119742157354322,0.3107797070619509,1
-0.09238345969929426,0.31941869475126855,1
0.013453402655324131,0.34969907403962736,1
-0.11254106154200494,0.29670934856815223,1
-3.166735205512722e-05,0.324716895159864,1
-0.04560702637199733,0.32398412589802655,1
-0.036606639609499225,0.45607778148544953,1
0.02594535762814939,0.21121923499970344,1
0.01247780923628014,0.34098900792851816,1
0.03305540535313917,0.4363146956419388,1
0.06198247020107748,0.35618224121022346,1
0.0060532120255396005,0.38782090367705585,1
0.0010470431300176261,0.35520135776339007,1
-0.013565599638437675,0.3169033849499781,1
0.008445190329092599,0.23823426928775698,1
0.20618291878355108,0.3606628623674183,1
0.12996129761614322,0.3116697597878841,1
0.009157314559931712,0.31049333171213894,1
0.019554398917499577,0.325620751223849,1
0.11871737365141763,0.4378731963563797,1
0.13091255893846024,0.47093201514030414,1
0.13989520369618147,0.361610546906426,1
0.10857933449196736,0.3275718008368201,1
0.12390292362849581,0.29200885316224645,1
0.15538851263475523,0.3743571941145109,1
0.15207646773464134,0.4401354780428652,1
0.04557046201941317,0.3386831906907506,1
0.15376355330452274,0.2321604200067477,1
0.13136367503290292,0.38467271763758554,1
0.19133546268818355,0.40050023162171233,1
0.34043720430278956,0.2719979760323179,1
0.2181042111059782,0.36017447923715845,1
0.1925640821027427,0.37397158286321625,1
0.26279370903414884,0.34781492895836486,1
0.24925179956592616,0.31199176010694457,1
0.2544846907599682,0.40238717924179057,1
0.27213194435668714,0.33148134276757907,1
0.3528710385695997,0.2774510339334171,1
0.20169700362696938,0.24929662978733008,1
0.29006184893047665,0.41487284207318015,1
0.22813941148105454,0.382723576899171,1
0.3102498887278722,0.3563490674344741,1
0.24449146135701938,0.32999667023787593,1
0.27744291002865756,0.32562049337266025,1
0.2913743582277334,0.29834359366313645,1
0.3626676542238821,0.33061765585962327,1
0.3674761033318975,0.24624608933400927,1
0.266870927469064,0.31550727941899276,1
0.33943203963365326,0.33682359827726427,1
0.30865828916461074,0.3829244884567404,1
0.28858569902618425,0.35049417493095175,1
0.34795379215790795,0.39229666579579836,1
0.3505925836487067,0.42006727736009236,1
0.4944813634337315,0.4055790387980265,1
0.40183746240215407,0.3762560384781497,1
0.3182660417165023,0.3533836920706615,1
0.36577759307206087,0.3038111696933449,1
0.45186520282279075,0.3899077846853891,1
0.5119067474375247,0.43695796322990027,1
0.3347813183649793,0.3701359081037452,1
0.32658594389767837,0.44895357554493087,1
0.5205364260785579,0.276872044722971,1
0.45277774805850923,0.2955024728894486,1
0.3960927070437376,0.44603072951823924,1
0.47234912222416936,0.3665451766408892,1
0.3198392350896109,0.41907978696421755,1
0.4577016144035854,0.3526771081016907,1
0.47972603409983366,0.3101119310140115,1
0.5152452182855388,0.34289105203257647,1
0.4239269531050919,0.27699652759904236,1
0.48438818012571766,0.2972612044927778,1
0.4392054469386388,0.4023729500459305,1
0.503508284831648,0.39745013287591097,1
0.45112256524889416,0.3720209883951348,1
0.4805228175283866,0.267876910109208,1
0.456061115615328,0.3360706193839875,1
0.5432176509345409,0.2928008157290299,1
0.5582761818327003,0.4129374848538212,1
0.5081981508002101,0.32498472748870333,1
0.526298357628341,0.29994346063015637,1
0.45629487706272565,0.3557806664277055,1
0.5179583298237506,0.3723431473323042,1
0.5345284108616918,0.4285980776866206,1
0.6720526089381491,0.3177303493021263,1
0.4892658448679793,0.2845694932200047,1
0.6218003528719477,0.24694524239576096,1
0.6020369294990525,0.35311160506536643,1
0.569702696550328,0.32661443649554134,1
0.6469523807141493,0.2833257238652518,1
0.5808499428166832,0.41429228925602796,1
0.5847980409082921,0.38825323556710123,1
0.565650855517571,0.35354009625117816,1
0.6323228595416683,0.4232273144089835,1
0.6286754790849118,0.38819781587277125,1
0.5451452137828494,0.31398823112931945,1
0.5129126517448128,0.3032300300081032,1
0.5710402290691811,0.3961501274327351,1
0.5433693718794874,0.37512941003581,1
0.5822444038497885,0.36385846261337607,1
0.649208698929742,0.3131061960737981,1
0.5662542602974604,0.3858884765699317,1
0.5886267105848974,0.317776166065347,1
0.5951831637189913,0.35051178949476103,1
0.6360829847045437,0.4280183415461944,1
0.4825613400061086,0.32268943443873854,1
0.5656798275021457,0.27714169537800326,1
0.6075524795274501,0.3032238106405413,1
0.6578298911025688,0.40562612357082845,1
0.5739324744181225,0.3687077511078583,1
0.5052654605342078,0.34958733730681063,1
0.6305078840670828,0.3306365279780703,1
0.5680470275105222,0.3804192256237087,1
0.5404882018160282,0.3137559996989385,1
0.5687741701638727,0.37155453268297994,1
0.5906485891779656,0.31976853781260284,1
0.56938458029779,0.31150830899189846,1
0.488954063749349,0.3245769185168011,1
0.6435599147362235,0.33774092993625404,1
0.6617884000528451,0.3541298224661674,1
0.6298227460459208,0.3684041160208088,1
0.5394284983720019,0.17227307369623132,1
0.5851686899721426,0.31636882238271574,1
0.5937122783421461,0.3372328634046525,1
0.6226380077722659,0.4321244762052715,1
0.624640428516134,0.30293125585814884,1
0.5529053370330108,0.36513122918465163,1
0.5919703008948686,0.43180292576884827,1
0.6088573092341314,0.2914629957870933,1
0.6567738679044474,0.3768701955800775,1
0.6170646958083892,0.31711785459253183,1
0.6190164620140948,0.3820597711771966,1
0.5813473773690414,0.31719592859639306,1
0.6451401287414511,0.32081861687566493,1
0.5924357215185563,0.4935671016941844,1
0.5260934884663888,0.3997542999048435,1
0.6363872136328367,0.41267841139297123,1
0.5980559051363031,0.38225120464788603,1
0.5378224577020149,0.27739870288836377,1
0.532686543281498,0.37751945282702754,1
0.5680498712007629,0.41147804703862995,1
0.5728143879601548,0.3152216046137075,1
0.5558287788819187,0.45621792367611996,1
0.5577144194600469,0.393228412813168,1
0.6232083453743256,0.4506736165635481,1
0.5877266917262667,0.33724247569958415,1
0.5394988615509823,0.30331108921387917,1
0.5727296007375846,0.3401702448614387,1
0.4696152869315088,0.4300902119906477,1
0.5365966717722124,0.26695138029276877,1
0.6025069337212516,0.2550129005657158,1
0.4963641379901992,0.3629614622862486,1
0.45999415868957727,0.3864222457033606,1
0.4647665514072248,0.3589981170032531,1
0.43777134155892616,0.40593732290866263,1
0.4477849167369136,0.33110327904332726,1
0.4631568367876081,0.2651414668051393,1
0.40595354611960355,0.461075848214068,1
0.471454134782305,0.30905036798453245,1
0.5101213279267223,0.3060199382582669,1
0.41384813038678997,0.4142178070474021,1
0.5293241376583778,0.33986736231159687,1
0.47292041659608897,0.3559823377643327,1
0.49282894090204055,0.3833513485714896,1
0.40222689543466056,0.4134510095263739,1
0.4715646141764202,0.34265883171418604,1
0.36786383433923275,0.43538947867139005,1
0.46049897861914946,0.2526618979413353,1
0.4180100151716423,0.3975012642281299,1
0.4304189184026421,0.31759553648199373,1
0.33722331637751646,0.42824549221567665,1
0.3444061600932661,0.3667941623292048,1
0.4120891417125873,0.32610668378960794,1
0.3277914591158516,0.3929540170435601,1
0.391264949062913,0.40453139175524155,1
0.2925597819554265,0.39202669254021133,1
0.39605531855642345,0.3085071864180269,1
0.2846699294648779,0.33585115422097617,1
0.36648180311501766,0.3599083805484092,1
0.3626419777207886,0.35810905177437835,1
0.28894008627209145,0.39771932018119927,1
0.3452245977657758,0.2595469967863519,1
0.32141806232928444,0.377068423141758,1
0.2736563814661772,0.34591301469465124,1
0.2423048843353252,0.31854706359968615,1
0.1866688867123531,0.32340776753280426,1
0.2942854394031529,0.34986523519778656,1
0.19050259642729422,0.18059787520310933,1
0.26538860869351183,0.3256476638889082,1
0.2392683648729262,0.3169814131985715,1
0.2781598655815151,0.3874713268994179,1
0.22080685115543128,0.3206158443101611,1
0.2110894709684923,0.35019650042956313,1
0.25575636334750046,0.4381260338235532,1
0.22746684175749793,0.4107897904336598,1
0.218024916628527,0.4062457964424617,1
0.2171376758988103,0.336198616927147,1
0.10830881040129518,0.38840386441457264,1
0.21429786659222436,0.3496173724298108,1
0.19841274714435495,0.3515676139210441,1
0.10824785675826734,0.3819165536446189,1
0.13813450689524268,0.33164261903864534,1
0.13959548422592827,0.4362024656842526,1
0.1260261248198655,0.3536058154845961,1
0.14060387929863405,0.39259036277987663,1
0.18661094945257217,0.4345123704321588,1
0.16023650597113287,0.4133750472004531,1
0.03161862230642845,0.29140641533956857,1
0.11939237586918966,0.3841571772269895,1
0.14577475254472078,0.40450836420192815,1
0.08968967707625099,0.4066255575893337,1
0.11590343356138072,0.30642767677796523,1
0.15295913880100231,0.32930066863523105,1
0.09451039033088901,0.4119403542755788,1
0.04675978366381023,0.3241844359567659,1
0.07751041708163725,0.3473476636600829,1
0.023456279234984747,0.4411862689707976,1
0.008359246028702052,0.3600625279788601,1
-0.019456041341882703,0.32617379560880794,1
0.06723634384396869,0.31869164665975536,1
-0.060902264570338996,0.3792684929845605,1
0.047595593071683,0.2960351380838411,1
-0.013064946690745427,0.35038575231528113,1
-0.11705016377503022,0.3794740892620036,1
-0.03771838156865458,0.4278300655422863,1
-0.17010540083129277,0.3963099905358032,1
-0.04281709380901124,0.327289342620595,1
-0.03880248496753987,0.42197357640029043,1
-0.1216345257579408,0.34813687064713106,1
-0.0947710798536118,0.30138748342443494,1
-0.012149365645100621,0.35463057856603225,1
-0.1440283546434947,0.43520111858899146,1
-0.1805431693938574,0.37161467303735307,1
-0.06234236428231481,0.3640387757529966,1
-0.04709288484099382,0.44533327677405043,1
-0.15380113523858055,0.2919649641885869,1
-0.11214141244400089,0.29931276284107017,1
-0.1043323991284968,0.28286040699776765,1
-0.21718304533710178,0.38234515187251245,1
-0.21293580407556298,0.3720974109066664,1
-0.13569554603329906,0.44096958491729943,1
-0.12151244868477003,0.3760665324125496,1
-0.1860962030511108,0.3437449325841465,1
-0.26665931129811177,0.36410254620441745,1
-0.13169323242437503,0.36995818548596054,1
-0.2659199683317713,0.28054476289890473,1
-0.2643989951556088,0.49970942078445824,1
-0.23873956281806644,0.3902464014752096,1
-0.1863045791226028,0.37481327797364394,1
-0.2294098887375699,0.395131073788844,1
-0.2593996000279168,0.39990343560664565,1
-0.26494890845900554,0.3574652243045944,1
-0.29384252075069045,0.3329908537700814,1
-0.2759488587442708,0.39458545690060215,1
-0.43810229680038193,0.38395847661349003,1
-0.33415223528550925,0.3242384416348475,1
-0.31488069491217663,0.43574473916008155,1
-0.39204805053771763,0.379520572410268,1
-0.32265564291963744,0.4014039507099008,1
-0.3595920397593868,0.43456903898291577,1
-0.268911888528657,0.366127447659562,1
-0.2852707422198023,0.3809406189529266,1
-0.3943652761994707,0.4056543925314271,1
-0.385685739569249,0.3289699884185191,1
-0.3888240674629356,0.36797563775322223,1
-0.4146048886545239,0.3716104959458801,1
-0.3890767132393985,0.3175901510315534,1
-0.4434573871539165,0.4813349300518176,1
-0.4686971177825018,0.295148430445904,1
-0.38756009659307455,0.30066791943856674,1
-0.39365323945374114,0.43134445541050404,1
-0.4716828580135071,0.4013564511675527,1
-0.39293849871135605,0.31445490975608714,1
-0.4754247864720472,0.39617761338761115,1
-0.43722630076403907,0.43926569688479244,1
-0.4148036838861077,0.36442003375747817,1
-0.4633341433928537,0.49593434364345707,1
-0.4446440821611142,0.2798501200987267,1
-0.49882390161179774,0.4008043953374841,1
-0.4883394405321305,0.4244996514579796,1
-0.4942139208744652,0.41080044172959224,1
-0.5265446211483051,0.3560754723194479,1
-0.5032378785258154,0.35183119655357337,1
-0.5769010847726344,0.3886205412108942,1
-0.5289852359937486,0.4072610189915353,1
-0.523513953743871,0.39665697847545045,1
-0.5268059471574597,0.41859621320340223,1
-0.5306816870429207,0.3157098328127965,1
-0.5261869060577347,0.355324793712352,1
-0.503499505750667,0.31977255806474647,1
-0.48799862305915837,0.3475277278690276,1
-0.5683446752809699,0.4176544232664504,1
-0.6000264959999345,0.3723525867143971,1
-0.5958559030405024,0.4973563608380246,1
-0.5718773633158503,0.42674373304242247,1
-0.5687522674667905,0.3701180207143239,1
-0.5931696108930715,0.3725025846597484,1
-0.6228630692069146,0.33536301604714125,1
-0.5841237576031371,0.3644216320736588,1
-0.5553791755807869,0.42376287605052126,1
-0.5377034211192789,0.37313202010372803,1
-0.5982013489133277,0.3278205122055664,1
-0.5937256491537778,0.32129927967820865,1
-0.6220258706526325,0.3451034281212488,1
-0.579747151356417,0.3713667064274854,1
-0.6229493375181432,0.427412873483155,1
-0.554092168260287,0.3007691266434205,1
-0.6741299716162074,0.351862256819705,1
-0.6047731787194868,0.3751290836882972,1
-0.5735578914558962,0.2762883063374721,1
-0.5811091967857172,0.32635369257302393,1
-0.45720262054308547,0.3340991917369355,1
-0.5757830472410872,0.32835511203362033,1
-0.6447595638866621,0.3778081199796281,1
-0.6004785807832317,0.36024567425585635,1
-0.6855307070241429,0.3405693616032949,1
-0.6016256568309108,0.3897918100633789,1
-0.6399898087590744,0.45460742662046016,1
-0.5531727175607175,0.45047652857763576,1
-0.6268882217068091,0.27243512613983184,1
-0.6055821249298069,0.3974873359371061,1
-0.6317179112325361,0.3597925742445577,1
-0.5130571658214105,0.37651151789341786,1
-0.6159850966172854,0.3488996110754231,1
-0.5080818591452751,0.3747532062493111,1
-0.5586524528416283,0.3765041565609524,1
-0.5747706903733814,0.3400462108923058,1
-0.5798151218908438,0.3242354333708934,1
-0.5778035751367621,0.34667903863357874,1
-0.692982810588787,0.3808867979897917,1
-0.6095133771140698,0.3991836638535671,1
-0.5521458531443977,0.4119613076387617,1
-0.5955479388070701,0.3446443696208092,1
-0.6619269794159128,0.38360611114169213,1
-0.5927175231315777,0.4175990243766207,1
-0.5031876015912206,0.4278136515385627,1
-0.5242100194290821,0.3666522760771807,1
-0.5876831026509679,0.35860734453917664,1
-0.5349057530092911,0.3792701544803774,1
-0.5985663790415872,0.31228858114608793,1
-0.6630654239279649,0.36015349124158325,1
-0.6215945049064399,0.40712329871941566,1
-0.4945952411890538,0.4020513472703447,1
-0.5836775196473113,0.3565006225823657,1
-0.5792555905568385,0.380959924857319,1
-0.5790578252842472,0.3289015097908267,1
-0.46571029482947657,0.4053686462190128,1
-0.47634278862729224,0.3663629790033384,1
-0.44329847938081,0.3565164902277556,1
-0.558660428979412,0.3522878830102937,1
-0.53227234503525,0.36728939347237055,1
-0.6191066529206353,0.34810021657316603,1
-0.4655251747503193,0.4034612626222926,1
-0.5937355466352487,0.3508499454237559,1
-0.5203606819992008,0.4503223396283345,1
-0.5817966391784244,0.44399467200343495,1
-0.5519870391198746,0.3262169843390411,1
-0.559900134848796,0.37433938430563085,1
-0.5438062475619069,0.33838135176975753,1
-0.5356272986345103,0.3546418166795372,1
-0.5312275684563008,0.4711555802236081,1
-0.45717578952777665,0.3557156479879788,1
-0.5490005033116374,0.3891655327000407,1
-0.47753284975992955,0.4482803075489836,1
-0.4223533821843424,0.3212427862268082,1
-0.5034926455597651,0.32857949313291046,1
-0.5082015608674285,0.3110931602853652,1
-0.47819719538948185,0.32715575416328274,1
-0.4019438921012995,0.22901279739471295,1
-0.445379105882337,0.398803434902654,1
-0.47569601337854595,0.47434401892817657,1
-0.41889010694990597,0.37908537581959995,1
-0.49204639408270656,0.30094090790314365,1
-0.39661226387700077,0.33967554372757713,1
-0.40390035466571306,0.34893053262372514,1
-0.4332750965064202,0.32105514801670665,1
-0.453272854379537,0.4150035307995338,1
-0.4490429286748533,0.4125674131009431,1
-0.3712412697157874,0.3143418331936939,1
-0.32971583146597483,0.40842848710935276,1
-0.41612398089508135,0.44857508006824115,1
-0.35434558326814947,0.46742236915325636,1
-0.47453677316449006,0.515615072048477,1
-0.39225260190297867,0.32731485042441943,1
-0.3573283741134047,0.5136855162187399,1
-0.3939323777853561,0.3548241874759408,1
-0.38786703932222805,0.34297124613475505,1
-0.3669466310777321,0.38900814965007346,1
-0.31138807102785854,0.3436114762039311,1
-0.32773005382703446,0.3927267619433085,1
-0.4225686379322536,0.3068307075265176,1
-0.40891488825266137,0.3609569488126114,1
-0.3253770440390843,0.4372337026362676,1
-0.2642362453875906,0.37016153834902626,1
-0.4165172915050681,0.38015440425997876,1
-0.2960865329631865,0.39689755716125064,1
-0.28930872129538987,0.4317277203936686,1
-0.1854159168479404,0.2904934153207144,1
-0.2658624036651723,0.4025408655244583,1
-0.21918427144052383,0.35996771797289884,1
-0.22293905455434757,0.3817665817029794,1
-0.3281461050529373,0.4264922074279067,1
-0.17477287559932408,0.3138453783715962,1
-0.19393037110102093,0.3229825008724344,1
-0.17075715864957233,0.27690323696129904,1
0.008715525777667127,0.3462767998612011,1
-0.28318510056760926,0.4403163761707312,1
-0.08408700048493507,0.36782541153051734,1
-0.1759978431110483,0.306908538173852,1
-0.13852588914646732,0.34969085773023945,1
-0.1464000335484467,0.2996417217868611,1
-0.15653553910678852,0.3178355138772347,1
-0.1549838862427827,0.3935957764793789,1
